73
0 1 8 3 1 1 16 16 0 0 0 0
16 89 -29 67 100 -20 -117 -61 120 3 -3 -24 108 73 85 -50 120
24 -5 101 2 -92 31 125 124 27 -36 105 -92 66 77 105 53 103 22 -72 -55 -103 -63 9 80 -90
1 257 11
8 -31 2 20 31 -28 5 15 0
128 0 -127 1 127 2 -39 3 -127 4 -127 5 127 6 127 7 -127 8 -127 9 -86 10 127 11 -127 12 -127 13 -127 14 127 15 -127 16 127 17 127 18 -127 19 127 20 127 21 -127 22 -127 23 127 24 127 25 127 26 -127 27 127 28 127 29 127 30 -127 31 127 32 -127 33 -85 34 -127 35 -127 36 127 37 127 38 -127 39 -127 40 36 41 127 42 -127 43 -127 44 -127 45 -127 46 -127 47 -127 48 127 49 -127 50 -127 51 127 52 127 53 81 54 -127 55 127 56 -127 57 127 58 -127 59 127 60 -127 61 127 62 -127 63 127 64 127 65 -127 66 -127 67 127 68 127 69 -127 70 -127 71 127 72 127 73 127 74 -127 75 127 76 127 77 127 78 -127 79 127 80 127 81 127 82 127 83 127 84 127 85 -127 86 -127 87 127 88 127 89 -15 90 -127 91 127 92 127 93 127 94 127 95 127 96 127 97 127 98 127 99 127 100 127 101 -127 102 -127 103 -106 104 127 105 -127 106 127 107 127 108 127 109 127 110 127 111 35 112 127 113 -127 114 -127 115 127 116 127 117 -127 118 -127 119 127 120 127 121 127 122 -127 123 127 124 127 125 127 126 -127 127 127
0 1 8 3 1 1 16 16 0 0 1 0
16 29 36 106 -75 120 14 -5 -14 94 6 -61 -112 79 108 13 107
24 -124 88 84 33 -1 -42 -44 -111 -104 -25 73 -127 84 -65 53 -79 57 54 44 29 95 59 95 107
8 1867 13 1589 14 1585 12 659 11 1477 13 1115 15 265 11 209 10
8 22 -27 -2 30 -3 -25 30 2
128 0 -127 1 -127 2 -127 3 127 4 -127 5 -127 6 -127 7 127 8 -127 9 -127 10 -127 11 127 12 127 13 -127 14 -127 15 -127 16 91 17 127 18 -127 19 127 20 -127 21 127 22 31 23 127 24 -127 25 127 26 -127 27 127 28 -127 29 127 30 127 31 -127 32 127 33 127 34 127 35 127 36 127 37 127 38 73 39 127 40 127 41 127 42 -127 43 -127 44 127 45 127 46 127 47 127 48 -127 49 -127 50 -127 51 127 52 -127 53 127 54 127 55 127 56 -127 57 127 58 127 59 127 60 -127 61 -127 62 127 63 -127 64 127 65 127 66 127 67 127 68 127 69 102 70 -127 71 127 72 127 73 -127 74 -127 75 -127 76 127 77 127 78 127 79 127 80 -17 81 67 82 -127 83 127 84 -127 85 -127 86 -62 87 127 88 -127 89 -127 90 -124 91 127 92 127 93 -127 94 7 95 -127 96 127 97 127 98 -127 99 127 100 127 101 -127 102 -127 103 127 104 127 105 -127 106 -127 107 127 108 127 109 127 110 127 111 127 112 127 113 127 114 -127 115 127 116 72 117 -127 118 -127 119 127 120 -127 121 -127 122 -127 123 127 124 127 125 -127 126 -127 127 -127
0 1 8 3 1 1 16 16 0 1 0 0
16 81 109 11 -75 119 77 27 13 23 -54 -14 -104 25 77 -29 -46
24 20 -80 -80 124 -6 46 97 -118 -66 -79 -119 41 -110 66 -89 88 -53 83 29 -61 -105 -94 109 -107
1 23 6
8 29 10 27 -5 26 -10 -13 35
128 0 0 1 0 2 127 3 0 4 0 5 0 6 0 7 0 8 127 9 127 10 127 11 127 12 0 13 0 14 127 15 127 16 127 17 0 18 0 19 127 20 127 21 0 22 0 23 0 24 0 25 127 26 0 27 127 28 127 29 0 30 0 31 127 32 0 33 0 34 0 35 127 36 0 37 0 38 0 39 0 40 0 41 127 42 127 43 127 44 127 45 0 46 0 47 127 48 0 49 127 50 127 51 0 52 0 53 127 54 127 55 127 56 127 57 127 58 0 59 0 60 0 61 127 62 127 63 0 64 0 65 0 66 127 67 0 68 0 69 0 70 0 71 0 72 127 73 127 74 127 75 127 76 0 77 0 78 127 79 127 80 0 81 127 82 127 83 0 84 0 85 127 86 127 87 0 88 127 89 0 90 127 91 0 92 0 93 127 94 127 95 0 96 127 97 0 98 127 99 127 100 0 101 127 102 127 103 127 104 0 105 127 106 0 107 127 108 0 109 0 110 127 111 127 112 0 113 0 114 0 115 0 116 127 117 0 118 0 119 0 120 127 121 0 122 127 123 0 124 127 125 127 126 0 127 0
0 1 8 3 1 1 16 16 0 1 1 0
16 84 116 -20 21 -57 -12 -1 42 37 52 107 124 76 -36 -106 -44
24 29 23 89 -123 -98 -32 -42 -112 -98 34 -79 60 53 76 -18 -102 -3 -42 -65 -58 -71 -84 81 73
8 987 14 573 11 1311 16 1887 13 373 10 879 12 559 11 1655 17
8 -16 37 33 -25 10 -29 7 -26
128 0 0 1 0 2 127 3 0 4 127 5 0 6 0 7 0 8 0 9 0 10 0 11 0 12 0 13 127 14 127 15 59 16 0 17 127 18 127 19 127 20 0 21 0 22 0 23 0 24 48 25 0 26 0 27 127 28 127 29 127 30 0 31 0 32 0 33 25 34 127 35 38 36 127 37 0 38 0 39 0 40 0 41 0 42 0 43 0 44 127 45 127 46 127 47 0 48 0 49 0 50 0 51 127 52 0 53 127 54 0 55 89 56 0 57 0 58 0 59 0 60 0 61 0 62 118 63 127 64 0 65 0 66 0 67 127 68 0 69 127 70 0 71 0 72 0 73 0 74 0 75 0 76 0 77 0 78 127 79 127 80 0 81 127 82 0 83 127 84 0 85 127 86 0 87 0 88 0 89 0 90 0 91 0 92 127 93 127 94 0 95 0 96 127 97 0 98 0 99 0 100 0 101 127 102 127 103 127 104 127 105 127 106 127 107 0 108 0 109 0 110 0 111 127 112 0 113 0 114 0 115 0 116 7 117 69 118 31 119 0 120 0 121 0 122 0 123 0 124 0 125 0 126 121 127 127
2 1 5 1 1 0 8 8 0 0 0 0
8 -118 28 -122 -78 119 121 -80 56
5 -96 -5 -74 59 77
1 431 14
5 -38 29 14 39 -28
40 0 127 1 -109 2 127 3 127 4 -127 5 -127 6 127 7 -127 8 45 9 25 10 45 11 39 12 13 13 13 14 40 15 22 16 127 17 -41 18 127 19 127 20 -127 21 -127 22 127 23 -95 24 -127 25 82 26 -127 27 -82 28 127 29 127 30 -85 31 126 32 -127 33 29 34 -127 35 -127 36 127 37 127 38 -127 39 85
2 1 5 1 1 0 8 8 0 0 1 0
8 86 -61 -110 -71 -109 38 -50 -38
5 -16 -81 -112 1 -8
5 579 15 691 14 1619 12 1333 14 1185 13
5 20 32 -19 -14 -33
40 0 -4 1 37 2 51 3 40 4 51 5 9 6 34 7 31 8 -127 9 127 10 127 11 127 12 127 13 -98 14 127 15 127 16 -127 17 127 18 127 19 127 20 127 21 -127 22 127 23 127 24 -7 25 -19 26 -23 27 -20 28 -23 29 -11 30 -18 31 -17 32 -127 33 38 34 94 35 49 36 93 37 -77 38 25 39 11
2 1 5 1 1 0 8 8 0 1 0 0
8 74 46 -87 89 -86 -40 8 -63
5 -97 25 108 -14 43
1 1173 14
5 20 12 32 25 -1
40 0 0 1 0 2 127 3 0 4 127 5 127 6 0 7 127 8 127 9 94 10 0 11 127 12 0 13 0 14 26 15 0 16 127 17 127 18 0 19 127 20 0 21 0 22 94 23 0 24 0 25 0 26 112 27 0 28 111 29 65 30 17 31 88 32 127 33 127 34 0 35 127 36 0 37 0 38 24 39 0
2 1 5 1 1 0 8 8 0 1 1 0
8 39 -36 -28 87 41 -63 -88 16
5 49 -124 -10 62 -107
5 139 10 1323 16 233 11 1599 14 781 11
5 5 38 -4 5 35
40 0 127 1 0 2 0 3 127 4 127 5 0 6 0 7 111 8 0 9 127 10 108 11 0 12 0 13 127 14 127 15 0 16 0 17 37 18 28 19 0 20 0 21 68 22 96 23 0 24 127 25 0 26 0 27 127 28 127 29 0 30 0 31 102 32 0 33 127 34 127 35 0 36 0 37 127 38 127 39 0
0 3 10 3 1 1 12 12 0 0 0 0
36 115 101 35 91 31 -94 56 -48 -28 64 -21 85 39 -107 -127 25 -78 51 -42 -87 -66 -70 36 -13 -31 54 97 45 18 96 -21 -119 -25 96 52 18
90 -20 52 66 -115 119 -25 66 -97 -81 -57 70 -87 -127 80 35 116 -127 28 -102 106 42 -13 99 83 123 46 123 39 -6 -12 54 8 -118 97 -106 -21 83 -77 91 77 -116 99 -1 122 87 -47 45 96 109 75 -85 -3 -44 80 58 -127 8 -50 -26 -98 -13 105 -48 -21 -94 -73 29 -56 33 93 -111 16 87 -79 125 -124 -102 49 -107 -62 -61 27 -8 13 -124 56 -79 123 -122 -93
1 537 11
10 4 -26 -21 -5 -38 -35 -35 -14 -7 31
120 0 127 1 127 2 -127 3 -127 4 -127 5 -127 6 127 7 127 8 127 9 -127 10 -127 11 127 12 -127 13 -127 14 -127 15 127 16 127 17 127 18 -127 19 -127 20 -127 21 -127 22 127 23 -127 24 -127 25 127 26 127 27 127 28 -127 29 127 30 -127 31 127 32 127 33 127 34 127 35 -127 36 127 37 -127 38 -127 39 -127 40 -127 41 -127 42 127 43 -127 44 -127 45 -127 46 -127 47 127 48 127 49 -127 50 127 51 127 52 -127 53 127 54 -127 55 -127 56 -127 57 127 58 127 59 -127 60 127 61 127 62 -127 63 127 64 -127 65 -127 66 127 67 127 68 127 69 -10 70 -127 71 127 72 -127 73 -127 74 -127 75 -127 76 -127 77 127 78 -127 79 127 80 -127 81 -127 82 127 83 -127 84 127 85 127 86 -127 87 127 88 -127 89 127 90 -127 91 -127 92 127 93 127 94 127 95 -127 96 -127 97 -127 98 -127 99 -127 100 -127 101 -127 102 127 103 127 104 -127 105 -127 106 -127 107 -127 108 127 109 -127 110 -127 111 127 112 -127 113 -127 114 127 115 -127 116 -127 117 -127 118 -127 119 127
0 3 10 3 1 1 12 12 0 0 1 0
36 -47 115 -34 113 18 105 90 -117 89 64 119 52 28 40 -1 55 37 104 -10 36 -16 -32 96 10 -82 -74 -31 23 -53 -125 -92 -89 -58 -42 -41 75
90 -33 -86 -94 -82 -51 88 0 108 -105 -125 56 -89 -52 92 -21 77 -18 -85 -111 -102 -104 124 -98 6 -100 122 -118 33 79 -27 -41 22 -5 59 -102 80 -50 17 -106 15 72 -53 60 -109 16 -40 -42 -31 -77 5 31 -35 -66 -50 105 -96 61 79 64 -53 -118 -26 112 -24 -4 -5 48 122 -71 -13 -117 126 -115 86 -6 -98 101 126 -112 108 -58 13 -49 -43 -41 52 -88 36 -29 -2
10 1293 12 1173 12 1449 14 1157 15 367 12 1637 12 481 11 1119 14 321 12 1565 15
10 -37 27 17 -15 -25 23 10 -8 -14 -35
120 0 127 1 127 2 -127 3 127 4 127 5 127 6 127 7 127 8 127 9 127 10 127 11 -127 12 127 13 -127 14 127 15 -127 16 -127 17 -127 18 -127 19 127 20 127 21 -127 22 -127 23 -127 24 127 25 127 26 -127 27 -127 28 -127 29 127 30 -127 31 -127 32 2 33 -127 34 -127 35 -127 36 -127 37 127 38 -127 39 127 40 -127 41 -127 42 102 43 -127 44 127 45 -127 46 -127 47 127 48 -127 49 127 50 -127 51 127 52 -127 53 -127 54 127 55 -127 56 -127 57 -127 58 -127 59 -127 60 127 61 127 62 127 63 -127 64 127 65 127 66 127 67 127 68 127 69 127 70 127 71 127 72 -127 73 -127 74 -127 75 127 76 -127 77 -127 78 127 79 -127 80 -127 81 -127 82 -127 83 -119 84 -127 85 -127 86 127 87 -127 88 127 89 -127 90 -127 91 -127 92 -127 93 127 94 -127 95 127 96 127 97 -127 98 127 99 -127 100 12 101 98 102 -127 103 127 104 127 105 127 106 -127 107 -127 108 -127 109 -127 110 -127 111 -127 112 -127 113 -127 114 -127 115 -127 116 10 117 -127 118 -127 119 -127
0 3 10 3 1 1 12 12 0 1 0 0
36 115 77 -72 32 -90 -101 -77 -10 -31 -35 12 84 -89 -101 126 25 124 -3 -90 17 -24 36 47 -19 97 6 -1 46 107 100 -45 86 0 0 35 44
90 96 119 96 56 107 89 -10 19 -108 26 -76 64 -62 53 -117 -13 120 -104 64 -21 11 103 27 79 -111 -43 -32 46 -18 84 29 -46 73 -7 -70 93 2 76 104 121 111 82 -88 -111 -94 -86 -30 79 66 -4 -71 -45 88 77 -117 77 103 5 -75 89 -125 -118 -30 -106 -51 -89 8 67 -53 75 -40 7 22 5 -124 95 1 26 10 121 53 -90 -52 95 67 40 -119 126 103 -28
1 1997 13
10 -11 -38 -40 -17 -2 24 32 -8 2 -32
120 0 0 1 0 2 127 3 0 4 127 5 0 6 0 7 0 8 0 9 127 10 127 11 0 12 127 13 0 14 127 15 0 16 0 17 0 18 0 19 0 20 0 21 0 22 127 23 0 24 0 25 127 26 0 27 127 28 0 29 0 30 0 31 0 32 127 33 0 34 0 35 127 36 127 37 127 38 0 39 127 40 0 41 0 42 0 43 0 44 0 45 98 46 127 47 127 48 0 49 127 50 127 51 0 52 127 53 0 54 127 55 0 56 0 57 0 58 0 59 0 60 127 61 127 62 0 63 127 64 127 65 0 66 0 67 0 68 0 69 0 70 0 71 127 72 127 73 127 74 0 75 127 76 0 77 0 78 0 79 0 80 127 81 0 82 0 83 127 84 0 85 0 86 127 87 127 88 127 89 127 90 127 91 0 92 127 93 127 94 127 95 0 96 127 97 0 98 0 99 127 100 127 101 127 102 127 103 127 104 0 105 127 106 127 107 127 108 127 109 127 110 0 111 127 112 127 113 127 114 0 115 0 116 127 117 127 118 127 119 127
0 3 10 3 1 1 12 12 0 1 1 0
36 -1 93 -60 114 84 -50 70 -23 -29 80 -29 -112 -86 37 112 -95 -66 -54 59 85 -42 -113 114 -118 -4 -21 -91 -2 100 94 27 56 -107 45 51 -89
90 80 -115 -94 -29 52 47 -28 80 -27 -108 125 -102 34 73 -8 55 77 -96 -14 117 -37 -7 -45 71 30 32 -52 5 -32 -116 -22 72 -101 72 34 -52 107 93 66 103 -118 -89 52 -2 112 74 63 74 -79 112 29 -122 13 -99 -41 90 96 127 -11 -117 -8 -119 39 98 39 -95 118 -79 -36 -3 -29 26 -39 -112 -96 118 47 -118 75 -62 -10 31 -78 29 121 106 124 73 34 103
10 1653 17 107 9 117 9 359 10 765 13 637 11 725 11 1031 12 827 12 431 11
10 24 -1 -26 -22 14 32 14 -30 -27 13
120 0 125 1 127 2 0 3 127 4 127 5 70 6 26 7 0 8 0 9 127 10 0 11 0 12 127 13 0 14 0 15 127 16 0 17 0 18 0 19 0 20 127 21 127 22 0 23 127 24 0 25 127 26 0 27 0 28 0 29 0 30 127 31 0 32 0 33 0 34 127 35 0 36 127 37 0 38 127 39 127 40 0 41 0 42 89 43 0 44 127 45 0 46 0 47 127 48 0 49 0 50 127 51 127 52 0 53 0 54 127 55 0 56 127 57 0 58 97 59 68 60 0 61 127 62 0 63 127 64 127 65 127 66 127 67 0 68 0 69 127 70 0 71 0 72 0 73 127 74 0 75 127 76 127 77 127 78 127 79 0 80 0 81 127 82 0 83 0 84 0 85 0 86 127 87 0 88 0 89 0 90 0 91 0 92 127 93 0 94 0 95 127 96 127 97 0 98 0 99 127 100 127 101 0 102 0 103 0 104 0 105 127 106 0 107 127 108 0 109 0 110 127 111 127 112 0 113 0 114 127 115 0 116 127 117 0 118 127 119 0
1 8 8 5 2 2 16 8 1 0 0 0
128 -111 -102 -21 71 -88 60 117 -120 75 -13 -17 48 -21 -120 0 108 94 119 -44 57 -63 -107 -37 -109 -96 -36 50 -120 -39 -38 -82 -125 85 122 -68 82 -34 -109 25 101 -91 -74 -127 -75 41 45 60 113 103 -96 64 -126 -52 -33 49 -121 111 27 -68 92 -91 -80 -11 -99 -5 -39 54 118 -61 -94 -120 120 -74 -35 -42 -6 118 -53 -52 112 97 118 14 35 -44 -80 24 127 -107 -101 9 21 -49 -87 -31 102 -90 115 -95 78 -70 -47 3 -65 -67 66 -80 -53 -32 -20 42 -116 93 -94 26 -122 -27 -108 52 -109 -94 -20 -51 13 -21 62 110 -91
40 24 -106 36 -23 103 -52 -80 15 -19 -64 115 -125 -45 116 76 28 -51 -14 8 -21 -15 -7 -100 49 36 34 -113 119 -75 -104 -57 -88 -37 -33 -31 59 -32 116 -99 76
1 577 11
8 11 -17 13 15 -18 -9 18 3
64 0 127 1 127 2 127 3 -127 4 127 5 127 6 -127 7 127 8 127 9 -127 10 -127 11 127 12 127 13 127 14 127 15 127 16 -127 17 127 18 127 19 -127 20 127 21 -127 22 -127 23 -127 24 -127 25 -127 26 127 27 -127 28 127 29 127 30 -127 31 127 32 127 33 -127 34 127 35 -127 36 -127 37 -127 38 -71 39 127 40 -127 41 -65 42 127 43 -127 44 127 45 -127 46 127 47 -127 48 127 49 127 50 127 51 127 52 127 53 127 54 127 55 127 56 127 57 127 58 127 59 127 60 -127 61 -127 62 127 63 127
1 8 8 5 2 2 16 8 1 0 1 0
128 112 6 -91 -37 -9 34 36 -105 -4 66 -75 -52 -127 85 51 -13 31 -9 -126 -72 -51 -98 69 123 34 -50 12 28 -88 -19 53 65 -7 -104 46 0 67 118 -68 12 68 -24 -56 34 124 -122 -97 -58 99 44 -117 -127 -62 -26 7 100 21 54 -26 -14 -101 64 -63 -37 -55 96 66 45 105 -77 25 -106 -118 -109 75 -60 -49 9 -40 -97 8 93 -64 101 108 68 -86 -110 -21 93 -53 -55 6 -93 19 6 33 -74 9 -101 -22 117 35 12 -24 62 72 104 74 -56 -53 -14 -32 18 33 -92 -87 -96 51 -97 -30 -25 24 -8 -92 16 44 -51
40 -37 -72 -46 -14 -114 -37 -125 48 34 -5 -1 -51 100 -7 89 94 -6 -2 39 -91 32 -27 7 -107 63 50 118 63 -72 100 123 48 -21 1 -112 -1 -121 127 -110 116
8 609 11 1099 12 597 17 1205 16 2041 13 819 11 179 9 1149 12
8 -11 -22 33 -4 -16 -27 15 18
64 0 127 1 -127 2 127 3 -127 4 127 5 127 6 127 7 127 8 -127 9 -127 10 127 11 127 12 -127 13 -127 14 -127 15 127 16 -48 17 9 18 127 19 -22 20 75 21 -36 22 51 23 -41 24 -117 25 -21 26 127 27 127 28 -72 29 -31 30 127 31 25 32 -127 33 127 34 127 35 127 36 -127 37 127 38 -127 39 127 40 127 41 127 42 -127 43 -127 44 127 45 -127 46 -127 47 127 48 -127 49 -127 50 110 51 127 52 -127 53 127 54 -84 55 -127 56 127 57 -127 58 127 59 -127 60 -127 61 -127 62 127 63 -127
1 8 8 5 2 2 16 8 1 1 0 0
128 56 -43 -29 -84 -43 -20 38 102 48 -16 -90 -13 111 54 -90 7 -47 -94 -74 106 -80 -14 -38 75 124 -28 -18 79 -2 -28 59 -71 76 -77 -15 113 -75 23 54 -115 104 -28 -119 -68 35 -106 95 -80 -34 -113 63 36 46 -83 -68 29 -51 29 -105 53 95 4 65 -55 70 97 99 -37 -22 -10 -114 34 51 5 43 117 39 117 13 111 61 112 -17 21 -11 -2 -62 53 -6 -72 -41 -59 -117 -116 -114 -86 -38 -127 -53 40 -126 -92 -111 74 -18 47 -71 121 28 -26 15 108 -71 -11 -78 -41 28 -101 28 99 -106 76 -46 -45 10 -11 101 -44
40 -62 -33 -39 45 5 -39 -49 -10 -120 -107 -79 59 93 96 112 -1 6 -74 87 61 -29 55 14 58 -116 95 -76 -50 -62 -66 -109 -15 -79 7 -63 -48 -4 -116 -125 -115
1 1503 12
8 12 23 18 16 -25 -30 -30 -10
64 0 127 1 127 2 127 3 0 4 0 5 0 6 127 7 0 8 0 9 127 10 0 11 127 12 0 13 127 14 0 15 0 16 127 17 0 18 0 19 127 20 127 21 0 22 127 23 127 24 127 25 0 26 127 27 0 28 0 29 0 30 127 31 127 32 0 33 127 34 0 35 0 36 127 37 0 38 127 39 127 40 0 41 127 42 127 43 0 44 127 45 127 46 127 47 0 48 127 49 0 50 127 51 0 52 127 53 0 54 127 55 0 56 127 57 0 58 127 59 127 60 0 61 0 62 0 63 127
1 8 8 5 2 2 16 8 1 1 1 0
128 -102 84 68 -88 -22 99 108 -73 -15 29 -108 82 -18 16 66 99 85 -27 -117 118 -81 -64 -2 -71 -95 88 95 -56 112 -37 -46 127 -16 -100 15 103 -54 29 11 74 -76 55 -52 72 -14 4 27 -9 10 35 -61 -58 -68 -123 -97 30 73 55 -102 -83 60 -21 -64 -72 -55 98 61 41 -126 62 10 4 -18 92 -115 -96 -29 38 -58 -97 121 61 17 -36 -69 45 56 53 12 42 -55 -71 62 85 103 -66 -111 5 -49 45 -44 -68 -32 33 -5 -54 22 -84 -92 80 -124 14 2 -44 -34 22 35 -121 80 -94 97 -26 -88 122 -82 3 126 -108
40 -93 71 121 81 28 103 -121 -11 68 0 -73 -68 24 107 7 -48 -75 18 -67 67 -94 -100 25 -124 73 69 60 -29 34 30 -36 118 107 51 -94 -37 0 86 -2 -71
8 457 11 137 11 1441 12 1327 12 605 11 1797 13 289 10 1093 15
8 -23 37 11 -16 0 -3 9 -33
64 0 127 1 127 2 127 3 0 4 0 5 127 6 127 7 127 8 0 9 127 10 0 11 0 12 127 13 0 14 127 15 127 16 0 17 127 18 0 19 127 20 127 21 0 22 0 23 0 24 127 25 0 26 127 27 0 28 0 29 0 30 127 31 127 32 127 33 0 34 127 35 0 36 127 37 127 38 0 39 127 40 0 41 127 42 127 43 0 44 127 45 127 46 0 47 127 48 0 49 127 50 127 51 127 52 127 53 127 54 0 55 127 56 0 57 127 58 0 59 0 60 0 61 127 62 0 63 0
0 30 24 7 1 3 16 16 0 0 0 0
480 -74 -118 -47 58 64 119 -64 -40 93 -15 44 58 41 41 -70 -61 -39 44 -86 -49 -123 -36 19 11 -113 60 34 -89 -37 -122 -2 33 -112 -121 -66 -116 -124 -70 115 40 -44 -110 83 -112 -39 121 42 -19 -93 101 109 -72 -13 -16 -91 -36 -48 -82 39 -43 59 125 74 64 -23 -30 -125 -23 101 -60 9 9 78 61 124 48 53 -9 67 -117 17 108 -96 -23 117 -28 -84 -127 1 -92 32 95 42 4 88 60 52 -90 -107 -43 -67 88 85 83 -82 -64 115 -122 117 79 102 -84 63 74 87 48 16 -84 56 -107 -18 110 94 26 -101 31 33 -10 54 -89 30 27 -117 -63 -40 79 61 60 -31 -121 33 111 100 -118 0 -105 -36 -53 44 -89 -10 -67 2 -36 -86 61 65 -24 -41 -58 78 -1 114 -27 -124 -48 8 103 -54 13 -7 123 -119 70 9 19 14 -60 112 48 -118 -11 -26 57 -97 -24 -39 -1 -114 -122 -58 62 127 -119 -62 47 47 21 52 71 110 -53 127 48 68 -74 68 8 5 -40 -29 123 86 121 -63 -74 -98 17 124 -43 79 120 114 109 -65 23 45 57 9 47 97 -37 -86 107 95 103 -88 -43 89 64 82 -125 22 81 -114 17 -88 116 -39 -35 -53 33 -52 -45 -1 73 -24 26 -17 125 -84 -127 74 -91 18 -116 -14 -95 -40 110 -125 115 57 -5 105 115 43 82 42 72 -62 64 29 -79 -110 13 112 -19 -56 116 85 -83 8 -84 -111 41 36 -87 21 -99 114 2 34 76 12 27 -29 66 -16 -59 -48 -55 -124 -18 72 126 82 56 -56 115 -61 10 7 14 -46 126 -40 -79 53 73 -17 75 -91 89 -126 65 3 -88 73 42 52 109 73 17 -29 -35 -9 116 -118 16 106 -22 35 30 77 78 67 -69 103 -123 -35 8 124 113 -87 47 -78 34 -37 33 52 0 -123 60 61 -64 19 101 -66 -57 -80 114 67 110 -20 -108 19 -13 -67 63 55 -12 94 3 102 79 80 53 -102 118 -79 -85 -15 109 -111 110 -18 35 -26 113 -58 -63 -16 98 66 71 -36 29 -44 -104 -49 -120 -1 -125 68 -63 -76 68 -26 -29 -16 71 35 33 45 -28 51 98 83 -118 22 -8 -37 85 18 -95 17 54 -56 -44 83 -121 -26 -6 108 6 -93 -117 -107 17 94 -39 -35 -126 -110 -79 56 -99 44 11 -7 -116 -47 110 88 89 117 114 -121 -47
5040 -27 -114 1 -93 -127 115 -93 -29 45 -4 4 -4 11 110 72 14 97 111 -74 108 -13 -91 -73 -94 104 10 -99 108 -104 78 67 -120 81 -52 -126 -32 18 -102 111 -93 -110 82 -49 -99 61 61 10 31 -95 93 111 -28 -7 70 -91 -66 66 48 -64 -71 -89 -102 -95 -119 -19 93 -17 -89 -125 15 -112 119 124 -25 -33 -84 -46 119 99 -107 17 59 20 115 40 -1 119 -2 -117 72 -110 34 -21 18 -1 36 127 75 -39 99 -27 -41 -120 -49 88 -102 -108 46 -119 -65 37 -22 -117 54 -71 -97 -88 -41 -109 127 68 73 -91 -15 101 100 -97 -102 -67 48 -6 -105 -49 6 -96 101 76 -82 -103 86 71 47 -123 8 35 92 33 17 116 67 53 84 -79 68 -99 58 30 -117 -64 -8 109 -63 -85 -24 -76 63 39 31 -57 109 -36 -114 -69 47 -17 -81 -17 -19 -33 -107 -14 -120 -36 75 -104 -33 74 28 -111 -11 -115 75 -23 -60 69 107 83 85 -64 104 -72 -60 -16 127 5 93 67 117 -33 110 28 101 21 89 25 -81 44 -120 -6 -31 120 6 -119 -95 -60 -57 69 122 67 54 57 97 -126 116 -11 -103 35 95 -79 12 -91 38 34 110 -17 -79 34 118 4 73 31 75 20 47 106 -15 -52 83 33 -55 -94 50 -84 -21 25 5 5 78 124 58 -58 -15 -85 -99 -65 33 126 78 -7 -33 -48 7 -95 -107 111 -110 -1 -62 -90 -103 65 -105 -115 -44 -60 -124 3 35 12 -104 -21 23 -14 -124 -113 35 124 20 106 75 66 -124 -24 87 -114 37 20 -81 -29 101 -92 -36 -121 2 -74 -105 -83 -77 -127 -98 112 21 101 -28 41 68 94 84 -77 23 70 5 -98 65 79 3 5 126 -8 -8 48 18 -119 -84 0 -102 74 82 -76 74 -49 -107 97 -24 -117 109 -39 -35 25 84 2 -123 -75 83 87 -75 32 0 -47 -72 -46 122 6 -34 3 -42 118 -42 -23 11 -53 7 5 10 -99 91 -27 -61 -37 -110 -116 -76 89 91 65 -58 -53 -92 -112 -36 -62 -68 -104 55 -32 -22 66 78 122 41 126 61 -18 -2 -88 96 -15 64 -56 -8 20 -116 -86 117 -82 2 -60 90 30 -96 103 -108 -117 22 -105 22 90 126 96 18 93 103 99 -55 62 4 -95 -102 58 96 -76 25 78 7 9 -125 18 4 -103 -62 -16 -94 25 29 50 -50 -52 -120 126 -72 101 -7 22 -11 58 22 36 -64 72 -117 -36 -43 10 52 -23 41 95 24 124 89 71 -24 18 56 -93 120 -44 -117 -44 -16 -79 0 106 28 -117 117 -25 16 -34 -105 -84 -109 -88 84 99 92 -105 -14 106 -119 -52 -5 -82 -89 63 -55 2 -124 114 60 -96 76 22 57 -7 -23 -2 -24 -12 -121 -89 43 -4 -88 -30 31 -99 35 84 -59 87 122 -34 82 2 -31 -100 5 39 -54 73 103 -40 80 -32 29 53 105 35 -101 -81 49 11 -24 84 71 -81 25 45 -86 125 50 -107 81 117 -83 7 104 89 -58 37 5 -117 -59 77 31 11 -17 38 117 -40 127 -8 -67 -105 44 22 50 89 8 -22 -11 12 72 56 33 -53 86 51 -1 -112 -7 -6 -92 -59 -103 64 33 15 113 -92 46 -63 -12 -2 80 79 -21 68 79 14 2 -34 103 -41 51 107 100 -3 103 40 -96 78 14 -122 -117 -2 52 -43 -99 75 93 58 -54 -17 -2 -120 42 4 112 -40 -96 -4 17 -85 46 -12 -24 115 -61 -40 -59 80 -94 -127 112 -116 118 -119 14 -68 19 14 110 -61 -23 66 -67 -119 83 -94 30 63 -126 54 68 -59 79 99 71 59 -118 47 38 116 110 -124 -113 -17 -29 107 -122 -76 21 -103 -56 16 -120 7 -41 5 82 125 -112 83 -127 -22 -27 -116 -73 -86 -85 -50 73 98 -117 -68 115 -124 -74 -93 77 58 33 95 -51 31 65 6 -31 -59 -6 -125 26 105 54 -11 123 115 74 -66 59 116 -107 76 28 77 -83 -50 -43 -42 -64 -116 -41 -31 -60 -30 -15 -1 100 105 -4 -20 -103 -103 72 78 -18 -101 -87 126 38 -14 -51 40 23 83 -87 59 -81 9 -119 82 91 39 99 -127 83 26 5 7 -122 -108 -43 -70 79 75 28 -48 -59 15 114 -74 -69 -126 -65 -122 7 7 -121 80 111 -31 -87 92 12 54 -83 71 -24 9 -88 101 -78 49 13 -39 11 -94 -3 36 -36 -114 -47 38 59 -23 117 52 -5 -111 100 -116 -61 -42 -2 12 -41 63 51 -93 -34 -98 104 93 -76 75 34 70 -48 -110 0 -29 56 28 -24 -35 101 -25 77 75 43 51 -90 -94 -87 83 27 -61 -64 59 82 -67 -104 100 39 40 63 71 -68 109 102 44 -14 -70 -101 34 -86 -99 -50 27 88 -43 -89 -78 -92 40 81 85 111 -5 -40 42 22 3 -82 -42 -126 21 50 -28 -83 29 91 28 -46 -92 -71 120 -106 40 23 13 33 -67 62 -98 13 -60 107 111 28 -50 87 116 72 -36 28 112 15 -39 77 -62 52 -5 95 -73 -65 -27 107 -76 82 -27 -86 -24 -44 -124 -59 -81 108 -85 85 106 60 127 -50 -10 -27 63 -27 7 -124 36 -127 83 -77 81 84 126 105 19 -2 -39 -87 -120 107 -76 -77 127 74 49 37 58 54 -77 -70 57 -77 -102 107 9 58 102 -88 -22 -32 77 36 -17 -91 -107 -127 -102 -90 -110 21 100 -95 -72 -91 -103 30 112 120 39 -106 66 -21 -37 85 22 47 20 -11 62 -116 30 -80 -123 64 -39 70 -2 53 -20 -52 -3 -119 102 -73 -56 79 -109 -52 81 -65 -26 -110 -8 -112 16 14 -76 125 47 101 -104 26 -113 85 -17 37 25 36 110 -121 -43 -113 -106 114 -9 119 -77 -93 -21 124 25 -70 78 20 -78 45 45 68 -107 12 -103 6 51 -51 119 127 -107 97 -108 -110 90 -65 117 -63 -101 -115 89 114 109 69 88 94 -98 65 -49 82 -124 90 -56 -60 16 112 37 -5 -127 -14 75 12 92 -74 84 110 92 96 -52 100 -6 92 101 103 -73 -82 84 51 -83 32 54 -27 6 96 67 -121 -62 -22 73 109 -102 -91 26 70 56 101 -94 69 88 116 69 -100 81 -43 54 17 102 45 -110 -81 123 107 58 29 4 94 -84 78 93 -79 2 -36 105 20 -39 -36 -60 115 47 116 32 29 -63 -68 76 108 -86 8 -94 36 -50 -20 -13 -11 -92 45 55 79 83 -55 -76 -121 -108 -23 89 -70 19 94 114 104 109 118 27 121 -56 -13 125 97 -90 61 -8 80 -102 -78 77 -4 72 15 -21 42 -101 83 -127 -120 -116 94 -78 -88 7 53 1 12 -111 -11 65 -87 -51 107 -61 118 -19 -104 -110 48 6 57 84 -115 67 98 13 90 -96 4 59 41 112 95 -51 -107 17 -40 -44 100 12 -60 10 -100 -108 -21 96 26 62 -77 20 68 15 52 100 -12 -40 103 -24 -20 -89 -68 52 33 58 -4 -82 93 93 109 -72 73 -5 -56 6 80 44 -55 -84 24 -78 41 -18 94 -37 -66 54 46 14 -69 110 120 23 99 113 -25 7 -52 36 83 46 -111 11 31 -116 86 62 66 -118 123 -63 -26 -92 81 -68 66 -95 53 102 -94 41 -87 31 24 -41 124 -101 119 -121 -104 62 4 58 85 73 -116 -84 -99 -69 5 -3 114 -80 16 110 105 -17 31 -127 -118 -92 -42 -2 -43 84 94 -124 -76 -61 -70 -88 -52 110 -19 -119 -87 31 60 -85 -80 26 -82 121 -105 91 119 -7 5 92 -12 87 -79 5 -66 -74 -91 -21 109 6 -65 -83 53 86 24 -26 -110 -91 -39 -32 83 -108 -19 110 95 37 48 112 35 -85 -35 -30 38 88 67 105 -51 -29 116 94 -100 -127 -30 59 -39 19 77 81 81 25 -31 -11 -55 -69 80 -6 35 73 16 120 -23 51 -70 37 -56 -104 37 90 -34 7 74 47 109 105 -96 105 -43 -120 -103 79 126 -70 -95 42 -24 -54 -92 106 -103 -41 -22 -19 -98 -115 -50 -94 9 82 9 -88 -84 7 -92 -127 -54 -39 98 -35 101 48 -94 -60 -58 65 -30 3 70 -92 -10 108 37 -25 124 66 120 -93 41 -16 99 -103 86 29 123 97 97 45 32 -41 73 -94 75 33 80 120 72 -125 -63 103 -67 82 94 -74 47 15 21 80 117 21 -69 77 -8 -12 38 -107 -123 -8 -113 -82 -92 -17 43 -13 -37 -1 -113 -30 -41 87 47 -59 86 -4 -61 -7 20 89 51 33 -20 17 -92 -5 105 -68 -84 14 -70 -36 83 122 -1 54 -84 -125 125 -73 -1 36 72 -77 67 2 -34 -93 -38 -79 -20 83 121 -88 -86 103 43 68 48 -72 63 45 12 106 74 34 -61 -65 36 118 -80 17 -83 116 83 -17 119 -118 97 98 -92 -117 -78 127 -64 126 -113 -121 -50 27 21 -32 70 -119 -5 -61 0 127 118 18 -39 34 -20 32 23 30 -86 -82 7 41 63 54 -90 74 -20 98 -68 59 95 -107 -70 -84 -41 -8 104 22 -9 61 16 117 -32 50 125 -123 87 -11 61 -120 126 44 -55 98 103 -50 110 32 -94 -52 -27 -82 -34 -54 -77 -59 15 42 71 -122 -13 32 30 -38 -117 19 -3 14 -69 -36 -68 113 50 81 -121 37 97 56 -126 -120 88 119 -51 28 97 26 -58 -39 54 -9 121 -64 57 108 -111 109 111 -126 97 4 17 76 -119 22 -36 -69 77 107 11 84 -75 123 -108 -61 -25 -103 47 -94 -95 -78 16 -83 9 -119 -92 -42 93 -39 56 -25 95 110 -90 122 -107 69 -91 12 14 59 60 98 107 -108 -35 49 44 102 -29 48 -24 53 -15 -76 92 -85 16 44 -93 74 84 -84 -127 75 93 -8 68 95 124 19 -116 66 17 -97 15 -33 -27 28 76 85 114 -83 102 -75 123 113 33 127 35 106 -15 111 24 -11 9 -47 70 78 52 84 -15 51 54 95 103 29 88 52 -12 -12 -16 -31 79 -33 -16 -58 -84 10 -16 82 -124 119 66 -41 126 63 62 -48 -95 -14 42 37 -112 -25 35 102 103 -117 -102 1 81 -110 48 115 -86 107 27 46 42 -15 -122 119 37 -47 -23 -119 -39 -124 -54 -32 64 -43 -35 88 -106 38 -99 -109 111 91 -2 -11 -46 -38 57 83 -74 21 122 122 -42 -101 45 8 58 -101 65 2 -104 71 -62 -78 22 87 55 37 89 -87 -10 -67 23 -44 116 -77 -62 -126 -3 107 100 98 -70 -86 -65 -124 78 38 -126 -23 49 -93 126 -59 75 -27 117 123 -81 -15 36 -100 -88 -45 34 -102 -97 23 -99 44 54 75 48 70 -100 25 -8 57 104 83 -84 -17 -77 -72 -23 -43 -25 16 103 32 -45 91 -76 -116 -76 -11 -28 93 111 5 -110 122 89 0 85 18 95 5 -28 58 45 51 108 46 -93 -80 -5 77 3 29 56 -60 -6 -104 -90 102 -76 62 -105 69 23 47 104 -74 84 19 -29 -99 -76 42 126 -104 -51 -66 78 103 16 -63 -71 -38 -112 -35 20 94 -123 -73 -122 -48 -17 12 68 -49 -67 -3 104 -95 61 80 -83 -87 -39 114 66 122 -22 92 -7 94 -38 84 124 12 107 -27 26 41 30 -96 56 -27 -106 -10 -89 -40 96 -101 -98 13 -85 -37 -54 33 10 -126 -52 -98 120 105 -124 -49 13 -4 121 -29 103 6 -123 33 72 55 65 91 -30 -105 -59 -91 41 -91 40 1 -26 -49 43 21 -47 112 89 26 120 -87 -121 1 -40 -101 -88 -76 2 22 -63 4 -5 -67 -66 72 55 -66 95 -34 42 -64 40 -83 -101 54 83 120 96 -58 117 -72 -28 -17 -73 -18 46 -11 -73 -50 108 17 111 -81 0 -16 114 60 1 -42 -45 -43 -103 -121 112 -8 -73 73 -24 -27 -95 -7 71 100 122 50 -79 70 93 120 -78 -71 122 106 3 9 48 50 -27 85 -29 -98 48 -67 66 -104 -105 -104 101 -104 30 -126 -40 -80 -120 39 -19 40 -127 50 -126 -91 116 -47 9 52 -125 -33 81 27 24 -101 126 -88 64 41 23 -98 76 13 45 -93 -118 -90 -66 31 -9 124 7 -121 94 -30 62 -57 57 12 69 27 -1 66 122 88 92 -100 14 -6 -115 106 -69 70 54 -95 -1 69 35 -52 -58 86 -91 30 86 -24 -22 -6 36 113 -31 -120 -37 70 71 -31 0 41 11 -57 -101 -83 93 -66 -107 39 -64 -54 121 90 66 -24 92 -114 -43 94 -82 15 109 125 87 -93 -74 16 -95 -124 -114 -73 102 -53 96 62 23 72 -27 -24 -4 5 -60 -117 -90 -113 -99 62 124 -30 101 43 92 25 7 -62 57 -27 6 -112 57 120 -86 35 103 -118 -37 -27 77 12 19 63 -48 -74 -33 71 -105 9 71 119 52 -43 -73 -65 26 -34 -88 -73 2 52 24 -24 -96 -106 29 15 -57 19 53 70 9 -58 72 -66 31 61 -12 108 -50 61 46 -104 125 61 -63 81 -54 83 -90 -49 -70 122 -116 -127 -125 -37 -110 10 91 57 -46 87 -7 -55 -18 -21 42 127 -14 -55 60 5 72 -67 -125 41 -122 -106 103 62 97 23 49 112 122 -99 13 114 -30 91 97 -104 105 -84 89 -40 -88 98 -1 -46 -24 42 84 -74 -125 94 94 43 96 48 -33 -37 -14 -59 -58 75 5 88 77 -127 45 107 -37 -76 -74 82 101 95 36 110 -56 102 -125 -85 -50 2 84 114 71 64 64 -30 62 81 74 127 115 -20 -105 -44 -107 108 -55 99 75 55 68 -14 -20 -32 118 -3 -52 58 121 -121 67 71 -30 -31 117 3 91 -49 -125 -29 -88 -32 26 -51 -63 -85 82 -122 61 -17 -123 -103 115 44 -52 -107 74 -39 3 1 -22 96 119 -77 70 114 61 97 -20 -85 106 -125 57 44 32 99 -118 -46 -83 -101 -121 -28 110 -97 22 53 64 -46 -91 -11 -71 44 21 -8 22 -127 37 -1 48 113 -48 34 -3 -18 -20 115 -40 16 18 73 124 -80 86 -67 -126 -105 5 -61 38 -91 64 100 32 24 96 -20 103 28 -16 -7 -104 -100 96 116 -65 76 67 26 101 30 13 104 70 -62 -73 -31 107 -92 -13 5 -52 -37 18 3 -108 50 75 -45 63 -82 2 -41 -91 -96 123 85 -84 62 -63 -90 -81 -90 -17 -76 -64 18 106 -49 -49 106 -22 -119 -26 0 -93 32 83 84 -94 50 -39 47 -111 -18 -58 17 106 109 113 -12 48 119 19 -6 11 -106 -12 41 113 35 -74 0 54 -85 -118 50 52 80 -77 -74 89 4 107 -42 -42 -23 -19 -96 -74 29 45 -89 127 -90 62 -33 -43 -15 -19 -74 111 -75 1 38 -70 80 90 86 55 127 -70 3 35 -124 -57 29 -98 -45 20 29 56 53 -15 40 -87 68 13 -36 97 -36 109 -31 -64 -23 62 101 -126 -53 125 24 117 -65 45 32 18 85 118 104 105 -19 54 -34 66 25 10 4 109 81 -33 -13 118 78 -22 2 -42 -91 -127 40 40 19 -15 -92 18 33 86 -102 61 -65 21 -35 -92 -102 119 -7 127 -98 122 -23 -126 89 -20 -105 9 -121 -48 -80 -127 70 -99 -103 63 46 49 125 -34 47 -30 -82 44 -85 -39 23 62 67 -95 -69 125 16 -111 -98 -50 -78 -48 -31 -6 -119 -66 88 3 122 93 -11 -93 55 42 33 83 -62 -90 93 -28 -31 47 85 106 -59 -15 -2 -124 -21 -108 93 -72 -88 67 13 8 -57 -26 113 -45 13 -3 -93 109 -123 -69 -2 126 -109 -83 -95 6 -1 -5 35 9 -90 -90 -41 37 123 -61 106 87 -83 10 -23 -76 118 126 61 64 80 -99 -42 82 4 77 -97 -25 -126 -68 -95 105 -76 58 93 -90 10 -117 108 -51 -96 -43 -4 -80 -92 -115 19 25 122 -78 -93 -109 22 -54 -21 -2 4 -108 -69 -43 53 1 98 -103 -102 -68 43 -102 -8 -11 101 59 34 -36 -46 -94 25 112 -62 -48 14 101 104 21 54 -46 -66 -14 -48 -31 -95 127 -45 8 6 -26 -115 -18 109 -23 35 -76 -31 -30 -39 68 -127 65 25 116 92 39 -106 -121 -57 -88 -35 124 -75 126 87 -59 -122 17 53 63 -107 12 94 -87 -114 -111 -98 -71 -123 35 34 32 120 -63 -53 8 28 55 85 111 -81 41 124 71 17 10 -13 23 -16 -105 101 44 -3 -58 69 -41 -61 -82 77 16 -70 77 -76 -44 60 -38 112 -4 2 -111 -105 -65 102 -32 109 -83 -55 -67 -30 -88 82 -26 80 29 68 91 -41 110 -95 120 98 41 -42 -107 -21 62 27 -74 -13 -11 -91 78 -74 -81 -92 -62 -12 17 25 80 -10 100 -123 -103 5 98 82 27 1 -74 -119 -63 -5 -46 5 38 -62 83 96 6 -40 12 18 -41 59 -101 -41 -17 -100 73 83 121 9 92 38 -12 -75 43 89 -60 58 101 -117 104 -65 61 -14 -73 -80 75 99 102 51 -36 93 60 85 -116 38 -43 50 98 35 104 -29 0 -83 38 -86 41 27 117 18 125 28 -16 72 -55 -68 -1 -23 67 38 47 -81 -14 -33 71 -69 97 107 -20 -9 -31 -54 121 -77 -92 -78 -65 38 -29 -11 65 -96 91 111 -3 26 -68 62 -49 -9 -110 41 -45 122 95 -103 17 -73 -9 -116 -7 51 29 -64 -124 -107 -114 -93 -7 -36 113 46 -106 38 71 -38 10 -95 -20 -92 -38 -118 82 -22 -30 -75 -94 -38 -75 24 3 1 10 27 39 -90 -33 25 -102 81 59 53 -46 -20 -52 -76 33 38 -70 25 85 -4 -20 123 80 -106 7 -64 36 -98 -90 2 -82 64 -19 -40 28 87 78 -97 -38 -112 107 37 72 71 30 -9 -110 -20 -106 54 60 3 -12 16 114 -45 -2 78 76 126 -86 -52 2 51 -26 27 -97 112 66 -45 50 -48 -107 78 -57 -45 -121 87 27 -76 -9 -71 -41 -103 -82 66 -94 -48 -66 124 -25 -22 -35 -83 -13 -43 -47 -105 45 -46 -29 -33 -119 125 -97 0 -69 64 58 -45 -111 76 38 4 -37 -121 -48 -52 -64 35 -15 11 54 47 120 -80 -69 34 -63 -88 -43 104 56 -43 112 -28 -4 -99 1 -13 -106 -66 -12 107 -29 0 -79 58 37 -19 39 -103 27 -103 126 -79 -56 60 69 106 -26 -59 95 58 63 33 54 33 71 104 -102 -108 -13 36 126 1 -47 10 -1 113 -76 -49 -10 -114 108 49 -7 100 -122 -16 72 110 -24 -74 -38 -35 -114 79 -82 76 -62 23 -90 56 80 76 -25 26 21 60 -69 -126 69 45 102 84 11 -52 -2 104 34 -125 -125 -1 -63 27 6 -94 121 -91 69 69 -110 30 40 14 79 51 67 31 -5 -28 -58 80 71 23 40 -90 57 -14 57 -82 115 -81 -4 76 86 -84 54 -24 -66 -54 42 -79 14 -58 -37 88 70 -20 6 34 -55 59 61 109 -97 20 -46 55 -63 -31 -32 118 30 -119 -93 55 -18 4 10 -78 -54 121 125 -63 -31 -46 89 49 -37 57 83 -84 -57 -106 34 68 120 -122 26 -112 5 -76 23 -76 3 115 106 -45 28 -83 -121 -59 61 -21 29 -36 99 76 107 71 94 86 33 -41 -109 -37 121 127 32 27 108 -79 4 -105 122 -57 -31 -57 -48 108 7 -118 -36 -13 -120 -125 98 121 105 89 -55 -52 70 -68 46 35 -122 42 62 75 -88 -113 -4 86 -32 -125 -17 -70 23 36 3 -92 -71 -23 -72 6 -19 -55 -16 -98 0 -47 -4 46 -50 114 -91 110 11 -98 -56 -18 94 89 -53 -47 -91 -47 -54 51 -8 -39 45 31 112 -86 79 -44 80 -30 -55 -108 -122 101 -36 -66 118 -59 -124 123 37 60 14 -19 29 4 -17 44 38 -58 -92 -84 -62 77 -116 -23 27 -35 122 -63 4 -108 26 123 -25 -122 -27 39 88 -47 -82 49 4 112 -127 -13 54 79 -22 -114 29 82 -25 -5 -33 95 -90 41 85 -116 -111 58 18 -6 -53 -65 115 -36 -106 125 32 -99 49 -15 72 57 69 -6 -88 122 -38 64 96 -78 -83 61 63 33 -26 -37 1 42 16 54 84 66 77 -37 -6 -4 69 -91 -8 42 43 -57 3 117 -31 -31 5 91 -15 77 -76 55 90 -41 -85 18 -111 27 97 -46 55 -69 -61 -47 -36 -3 -47 -77 -98 -26 -78 68 -48 -25 -19 -98 -123 12 94 122 -9 103 -67 -100 127 -15 -99 -46 -34 123 -90 27 117 -118 -86 61 118 69 -58 -99 91 -102 -24 75 24 31 -57 46 -55 -55 24 123 85 -4 98 85 24 -91 87 -8 9 -101 60 -31 -92 66 -120 92 -82 66 -117 -12 94 -35 -13 13 119 28 -109 -86 105 -15 -126 98 -118 118 40 -45 68 -104 43 107 -110 -62 29 -33 -101 40 -56 40 -51 106 -91 89 39 -108 -59 63 -87 -57 67 67 96 -26 116 0 68 45 -45 22 -5 -3 97 123 1 -43 -88 15 -103 -54 -100 56 -5 71 -23 -44 -99 -125 105 -86 -99 -48 95 51 104 26 87 -54 37 -58 -119 -10 5 34 87 104 -87 110 57 -48 -113 -112 83 75 95 17 77 -63 -53 111 124 -115 49 102 -29 -107 91 42 -29 -63 102 126 -118 -42 -45 -79 -108 -30 -27 90 -27 43 -97 110 -71 73 -63 38 38 -63 -92 -88 54 -39 102 -28 120 92 105 -40 83 74 -68 78 119 -3 -13 -89 -30 54 -93 -108 17 1 56 7 -62 -58 -100 15 -122 68 -48 -16 -80 -71 -53 -11 33 80 -88 121 -29 -64 -122 -10 -98 -54 95 -79 -77 71 42 -36 -21 94 43 99 110 -23 33 -22 -100 71 -39 85 63 90 -5 78 43 49 107 85 -3 -86 -98 -119 15 -127 -78 -64 -28 68 -100 -81 9 -69 111 6 2 100 79 66 -110 -3 107 27 98 -80 -6 36 -106 -79 69 78 -22 -28 -19 -120 97 109 -65 48 110 50 60 -87 7 -20 -10 -2 -7 98 81 -43 116 41 -111 -43 -107 -95 114 -11 91 -87 63 -105 -41 5 112 102 -59 81 -91 -38 -60 -71 60 -68 77 39 45 110 -108 16 33 78 -115 16 -80 -79 -69 -92 86 -100 17 -47 -19 -88 4 103 -55 -27 -56 -50 -115 -18 46 34 115 -60 -91 14 110 -51 83 -61 91 4 -50 90 -61 22 -24 -9 60 -119 55 36 67 23 18 -14 22 -79 55 84 117 111 24 25 -76 -61 -37 45 102 -89 -94 -45 77 120 80 -80 -69 -96 -64 99 119 116 -27 102 -41 5 -60 -113 28 16 113 63 60 97 28 37 -49 66 -121 -84 60 -43 10 32 -52 -28 -121 -108 0 34 112 74 -26 55 43 112 10 19 0 -122 -50 -20 -120 90 -82 -111 -110 49 123 -111 69 72 -69 45 -105 -28 -41 -24 95 52 -78 -18 -59 -32 -27 10 -1 15 102 -4 -72 81 11 -36 -20 92 -99 -96 -116 -20 -6 28 59 96 67 -60 116 -6 -119 -58 46 -87 73 28 -45 -35 105 -103 60 3 47 115 -88 -56 -50 -13 -5 51 75 62 96 32 23 72 80 -6 -35 -1 63 108 -120 -96 95 108 -29 -112 -47 22 -15 -20 -25 -29 -82 -73 -83 74 82 77 -28 118 117 -51 -12 -116 17 -121 122 99 122 -88 33 -70 -92 44 24 -114 62 -98 50 114 -59 -87 115 -66 -29 -65 125 37 -115 -38 -27 -84 -28 -40 22 -63 -6 -87 81 94 -110 114 -124 52 -43 108 9 -107 125 -29 15 30 -24 -122 -17 -121 -9 -118 17 116 82 28 -46 107 -60 -87 -74 -54 67 -60 -38 55 39 96 56 7 125 -82 109 84 4 -42 -3 -47 -52 109 63 -98 -15 -92 -41 45 -9 -116 13 7 116 55 28 -69 62 -24 -101 37 -9 95 -111 106 113 -20 44 101 122 -14 -61 -64 -110 63 -7 102 8 -112 76 -72 -22 30 55 90 123 32 117 79 80 69 104 -112 -44 107 54 -122 -112 124 7 -61 31 -39 -102 4 7 49 -10 -85 112 79 127 9 52 -95 32 -42 -31 90 53 124 68 -59 -14 102 46 -43 70 -25 -33 40 27 97 123 -86 7 -2 106 48 -8 124 4 10 93 -101 39 58 15 53 125 -84 -84 -3 -69 102 -9 127 17 69 -5 100 -43 41 4 -87 -114 -19 81 -10 55 -107 63 -100 -33 123 80 -70 100 -124 -86 5 85 103 -16 -13 -38 81 -39 68 -39 112 -100 59 85 127 60 -114 102 -105 102 19 71 -45 -84 -23 31 -8 -46 54 91 113 -68 -59 86 -82 41 5 -52 -42 53 -31 -20 16 -87 59 -65 -11 -40 28 -71 -28 -29 -96 36 71 71 30 93 87 -120 82 -71 39 103 63 -74 -57 69 -107 -86 75 -6 42 45 46 59 -19 27 74 1 57 -28 -118 -16 103 111 -21 -6 -105 -27 114 28 11 40 14 -22 -74 -25 -79 96 -32 -30 -99 -118 16 61 -51 -48 -81 111 -126 21 -27 57 -10 23 -99 39 63 -87 -15 1 -22 -121 -84 -26 22 58 -15 57 65 -45 -77 -11 71 -80 -9 -117 -126 28 -88 -100 96 24 54 -48 0 -98 6 21 70 -29 -48 -29 -7 32 81 35 46 79 -3 25 75 -115 98 116 50 108 48 -3 -78 -16 -114 -25 -99 73 13 13 19 57 -28 -48 -59 23 42 61 80 96 -85 -98 -1 127 -24 -68 -85 28 -68 51 87 123 103 -95 -106 108 116 13 -69 66 -91 -70 31 118 -50 10 -6 94 -60 -47 -27 43 53 102 -80 -34 -21 70 47 -78 52 110 40 -121 53 18 33 -15 -120 27 -107 -55 -122 5 -115 112 79 1 64 -40 91 54 -34 -43 27 -75 126 28 -91 -126 -87 71 -46 -90 92 68 23 48 74 119 -5 -51 119 75 107 55 38 -22 -43 -31 122 -36 -113 99 92 -61 -98 -52
1 1185 13
24 25 -9 15 -21 36 36 -17 3 -17 -38 2 -21 -27 25 0 37 -9 -27 31 -27 21 26 38 23
384 0 127 1 127 2 -127 3 127 4 127 5 -127 6 -127 7 127 8 -127 9 127 10 127 11 127 12 -127 13 127 14 127 15 -31 16 -127 17 127 18 127 19 127 20 127 21 -127 22 127 23 -127 24 -127 25 127 26 127 27 -127 28 -127 29 -127 30 127 31 -127 32 127 33 -127 34 -127 35 127 36 127 37 127 38 -127 39 127 40 127 41 -127 42 127 43 -127 44 -127 45 -127 46 127 47 127 48 127 49 -127 50 127 51 127 52 127 53 127 54 -127 55 -127 56 -127 57 127 58 -127 59 -127 60 127 61 -127 62 127 63 127 64 127 65 127 66 127 67 -127 68 127 69 -127 70 -127 71 -127 72 -127 73 127 74 127 75 127 76 -127 77 -127 78 -127 79 -127 80 127 81 -127 82 127 83 127 84 -127 85 -127 86 -127 87 -127 88 127 89 127 90 29 91 -127 92 127 93 127 94 -127 95 -127 96 -127 97 -127 98 127 99 127 100 127 101 -127 102 127 103 127 104 -127 105 127 106 127 107 -127 108 -127 109 -127 110 127 111 127 112 -127 113 127 114 127 115 127 116 -127 117 -127 118 127 119 -127 120 127 121 127 122 -127 123 127 124 -127 125 -127 126 -127 127 -127 128 -127 129 127 130 127 131 -127 132 127 133 -127 134 127 135 -127 136 -127 137 -127 138 127 139 -127 140 127 141 -127 142 127 143 127 144 -127 145 127 146 -127 147 127 148 -127 149 127 150 127 151 -127 152 -127 153 -127 154 127 155 127 156 -127 157 -127 158 -127 159 -127 160 -127 161 -127 162 -127 163 127 164 -127 165 -127 166 127 167 127 168 -127 169 -127 170 -127 171 -127 172 -127 173 127 174 -127 175 127 176 -127 177 -127 178 -127 179 -127 180 -127 181 127 182 -127 183 127 184 -127 185 127 186 127 187 127 188 -127 189 127 190 -127 191 127 192 127 193 127 194 127 195 127 196 -127 197 -127 198 -127 199 -127 200 127 201 -127 202 127 203 -127 204 -127 205 127 206 -127 207 -127 208 127 209 -127 210 -127 211 127 212 -127 213 -127 214 -127 215 -127 216 127 217 -127 218 127 219 -127 220 127 221 -127 222 -127 223 -127 224 -127 225 -127 226 -127 227 127 228 -127 229 127 230 -127 231 127 232 -127 233 -127 234 127 235 127 236 -127 237 -127 238 -127 239 127 240 -127 241 127 242 127 243 127 244 127 245 -127 246 127 247 -127 248 -127 249 127 250 -127 251 127 252 127 253 -127 254 127 255 -127 256 127 257 127 258 -127 259 127 260 -127 261 127 262 127 263 127 264 127 265 127 266 127 267 127 268 -127 269 127 270 127 271 127 272 127 273 -127 274 -127 275 -127 276 127 277 -127 278 127 279 127 280 -127 281 -127 282 127 283 127 284 -127 285 127 286 127 287 -127 288 -127 289 -127 290 -127 291 -127 292 127 293 -127 294 127 295 -127 296 -127 297 -127 298 -127 299 -127 300 127 301 -127 302 127 303 -127 304 -127 305 127 306 127 307 127 308 -127 309 -127 310 127 311 -127 312 127 313 -127 314 127 315 127 316 -127 317 -127 318 127 319 127 320 -127 321 -127 322 -127 323 -127 324 127 325 -127 326 127 327 -127 328 127 329 -127 330 127 331 127 332 -127 333 -127 334 -127 335 127 336 127 337 127 338 -127 339 -127 340 127 341 127 342 -127 343 -127 344 127 345 -127 346 -127 347 -127 348 127 349 127 350 -127 351 127 352 127 353 -127 354 127 355 -127 356 127 357 127 358 127 359 -127 360 -127 361 -127 362 -127 363 127 364 -127 365 127 366 127 367 -127 368 -127 369 127 370 -127 371 -127 372 127 373 -127 374 -127 375 127 376 -127 377 127 378 -127 379 -127 380 127 381 127 382 127 383 -127
0 30 24 7 1 3 16 16 0 0 1 0
480 -54 -42 98 30 -104 -74 -117 35 109 -24 -61 4 54 -40 -71 126 23 104 -40 -61 58 73 63 52 103 -111 78 85 -12 77 -95 -118 44 -103 -15 112 54 -56 125 68 -42 -62 -14 -123 -40 60 -45 36 -65 81 -37 60 -35 123 -36 105 115 56 -31 -76 -123 -27 120 33 21 10 -49 -25 76 27 -122 12 91 99 -97 -47 -121 -16 -91 -104 86 -95 -115 41 106 15 -53 119 -77 65 40 -35 -65 17 -106 68 -70 43 -17 -46 37 35 51 33 -54 -122 -111 -10 -57 34 114 -30 -73 -86 58 106 -12 -125 -87 94 -127 -85 19 126 47 106 -115 -104 -33 69 -114 43 -70 94 -70 0 -62 -48 17 75 -32 61 40 10 -47 125 40 69 51 0 125 110 30 2 84 88 71 -115 -65 -94 62 -73 119 -68 -102 -92 -100 -117 26 16 -104 24 87 58 78 30 -16 -11 39 -12 -26 -124 61 30 68 35 7 33 98 119 -46 53 6 -74 -95 29 -51 14 -52 45 -25 25 6 66 -115 -10 19 18 -64 109 -27 -60 15 42 -49 61 -97 83 -47 19 53 122 -62 119 51 4 -59 -12 -13 -101 107 23 81 -48 -45 49 -108 56 -16 94 -40 63 -126 80 -100 88 120 127 56 -43 86 23 -101 15 -77 19 45 43 -126 112 111 -123 -123 -48 64 -9 -99 5 43 105 -122 0 62 -67 -57 92 105 4 -50 73 108 -60 -76 114 63 -25 27 -13 105 -5 -49 -43 -124 67 92 20 71 27 113 26 71 -52 -100 -40 50 -104 -88 -29 -11 -60 81 -38 -56 32 107 48 115 64 69 -71 54 -81 14 120 -11 -8 -61 -6 -103 -106 110 48 -83 14 -114 71 -63 -35 120 93 -42 -35 -113 -29 44 -40 -83 121 -55 99 -6 -116 11 2 -50 -46 109 -58 67 31 33 -46 -108 125 82 -38 85 -122 79 -13 85 32 -83 -36 103 30 -52 50 -60 -2 -127 -13 -87 -65 -39 120 -68 -98 96 37 -115 -30 -14 75 -31 38 94 26 86 -118 -44 -121 46 -124 -10 120 -63 -73 51 -82 -8 -101 51 69 61 -25 16 -113 -60 -101 -92 -113 -125 -62 -19 7 42 71 84 21 -55 78 -110 -42 -4 22 -41 -60 -42 -68 -115 62 6 -67 -14 6 54 -123 46 82 -30 -46 -117 7 121 97 -76 56 62 -98 16 -65 -120 82 60 10 121 -47 -89 77 56 -66 19 -1 11 -1 -17 -81 -13 -60
5040 -83 -5 11 -23 78 96 96 -46 50 -5 64 62 -20 12 110 36 117 -68 57 -54 -126 109 6 15 -118 94 114 117 57 62 -76 34 44 -59 92 75 93 124 25 4 66 8 -5 -84 51 -55 -70 -27 -35 -38 106 32 -30 -125 -1 6 -79 -19 9 1 -42 0 -89 67 -67 -95 31 35 117 -57 92 13 117 3 55 -51 -117 6 -75 89 75 -70 -55 53 4 99 86 103 24 -4 120 41 -33 -100 116 -78 45 66 -99 -12 -59 78 -2 40 -74 68 39 22 67 82 -70 -113 -116 -48 63 14 -14 -46 3 -68 -52 -71 -101 -43 109 101 83 123 -110 76 98 59 -70 -60 87 45 123 22 19 67 -54 -99 -9 -27 90 -48 31 37 -6 111 15 -76 77 121 -52 -7 45 53 29 -31 89 -116 101 21 42 -126 97 84 90 18 14 -121 42 -111 46 89 -31 -116 32 -121 -10 -93 59 -62 4 -14 -20 64 66 -77 -87 -109 61 86 -78 103 116 114 59 9 87 -119 -16 71 -112 -106 81 -53 43 119 -73 11 17 127 -10 -3 -40 -120 -73 15 19 41 -24 46 -74 60 89 -76 -99 -99 -43 -28 -78 56 -75 -24 -48 -111 27 -3 33 -2 -45 -30 24 -20 5 29 -81 110 -40 12 -99 67 -51 -59 12 -15 46 -62 52 20 -32 86 -57 51 37 -100 -124 42 -6 97 -78 114 99 78 -77 -76 40 -106 -2 11 86 -92 33 49 -64 -123 -69 -92 15 -20 105 127 114 78 -115 61 40 -22 7 82 -27 33 87 -90 -126 40 101 -46 -92 -15 -27 -58 -24 -57 -105 111 -86 31 -41 -44 38 -122 -101 31 1 -113 -32 39 53 20 83 8 -99 -77 -126 -75 -91 76 -118 -99 -88 73 79 -30 -11 -22 -101 2 51 -127 -83 1 -72 -107 -43 127 -49 -127 -112 -32 -117 61 -89 20 126 -73 91 -3 126 43 121 -64 70 110 -26 92 -34 101 -82 -116 -3 -77 92 -124 97 -116 119 84 -126 16 117 -67 -99 -19 16 -71 -108 112 -7 -28 62 -48 41 -59 99 -69 99 93 103 77 30 54 7 4 -31 28 -39 23 114 -94 4 22 -1 -106 -85 -16 118 27 2 -48 69 -54 -106 -41 125 -20 -11 118 39 23 46 14 56 -12 -6 116 -75 28 -49 -50 -124 39 43 28 47 32 108 -116 16 -10 -109 -51 -111 -122 -13 16 -106 -77 -71 83 83 90 74 65 21 -3 55 5 115 -17 -119 -112 -67 75 93 7 104 9 122 -65 31 0 -59 -94 -13 28 -72 -16 -52 -18 -112 -85 -102 118 36 -38 -85 -109 -22 -64 90 33 38 -101 -107 96 -60 -69 12 -67 -119 31 -86 102 103 -104 -93 60 -37 40 103 64 33 -87 -101 115 -22 123 -125 84 -119 100 -29 82 15 -127 -121 -97 -24 -3 122 -69 -74 78 93 -102 97 -80 74 -76 12 -107 114 32 89 16 52 121 -16 0 -15 -84 -72 66 26 106 98 45 58 57 51 -37 27 122 -119 93 112 -1 -34 -127 -50 103 100 -75 -14 -62 -17 26 -43 -126 -22 68 -42 -11 -46 -110 13 18 -26 126 -81 -101 20 11 113 -10 -23 7 100 48 84 -27 102 -71 18 42 -19 87 117 -102 31 72 11 -41 -62 94 -51 58 -69 35 11 91 92 53 106 -27 17 91 50 -97 -92 33 60 -54 -116 -42 -38 -21 112 -35 123 -95 -97 -21 -41 -55 -97 -78 -11 -83 -85 76 38 31 2 -90 -82 -21 -34 97 36 9 -10 -19 102 23 5 13 -73 75 101 -68 23 -120 -123 28 -98 49 -53 -30 -107 97 -88 -78 -126 -49 21 12 76 81 59 122 -94 -76 -16 26 -95 109 -117 -28 -22 63 112 61 18 -19 -85 50 -37 39 7 -82 17 32 -9 -44 -52 -124 44 -47 73 -112 76 -93 -74 96 65 -80 69 3 -36 -88 71 -73 106 -127 -62 113 75 15 -105 65 52 116 65 -108 9 93 -41 -124 109 -23 119 -62 -9 74 103 -1 123 -23 -68 -54 -21 -70 -94 28 89 -81 82 80 112 -63 -104 97 -3 95 29 8 -21 -52 -122 -9 -90 38 52 108 32 -116 -112 45 37 84 -29 -102 -86 57 -101 34 -64 16 -40 -88 -41 9 116 -83 -48 77 -49 42 92 84 -43 4 -6 -118 -117 -1 115 115 112 7 36 118 -11 -99 -51 10 24 34 125 19 -42 -83 60 101 111 -49 69 107 16 25 21 35 58 34 -108 -119 31 -32 112 52 -7 37 41 29 7 -86 -58 -122 -115 -103 -106 -114 74 -103 -88 20 66 -102 -59 -39 -78 118 69 -81 114 102 -52 -95 81 22 -47 -57 -94 -23 -118 -127 -127 -109 -107 78 73 86 -90 -19 55 -26 -53 -16 2 43 87 106 126 -3 -105 29 40 62 -8 -77 1 -75 -92 14 -92 19 31 -56 -2 -97 120 95 29 22 19 24 -53 113 -103 -25 -110 65 45 97 -64 -27 -89 -76 -58 66 -78 -55 46 82 -45 108 -19 23 17 54 -57 -118 69 50 8 -35 56 -103 9 -45 13 70 -67 11 -64 -91 76 120 -18 32 -71 -54 29 -94 98 126 -89 -91 -99 60 -16 58 21 -57 -80 -95 109 -119 -93 -106 -20 108 62 107 48 6 -70 51 -31 40 37 -71 -99 -30 -70 48 -34 -113 -23 103 41 -73 -124 122 -114 -80 -84 -100 56 11 -45 -28 -3 0 86 127 58 110 -57 -115 -120 65 -28 125 61 24 102 35 -87 81 126 52 -112 -7 -56 109 -99 25 -70 -69 -115 -34 -95 99 71 28 -123 -28 122 21 56 18 -63 -115 -12 -62 121 74 68 -33 52 99 -1 37 -97 58 24 110 -94 35 -33 17 -84 -22 -120 -14 123 -23 46 -29 -49 123 -94 57 -108 -48 9 80 -90 28 125 -1 -105 1 -54 84 -72 84 -14 12 -53 113 -92 -72 4 -34 112 8 -21 93 -81 104 -31 59 -5 -104 7 22 -39 42 106 -56 -57 108 10 16 42 -111 77 -102 60 12 -77 14 -112 90 93 86 -13 -49 -100 72 72 95 90 -102 -50 -47 -52 -120 -9 30 10 86 36 -77 122 97 -10 31 115 -30 -105 -77 -71 46 17 116 -29 -100 59 106 89 17 -92 111 -78 99 -1 94 39 -66 -80 -21 119 88 38 2 52 -6 68 117 -16 -81 7 77 44 -58 -23 -33 27 58 -85 56 -83 46 7 94 30 -74 95 -36 53 6 -123 62 -77 -96 -122 25 -16 111 11 83 10 -127 -43 108 48 56 64 25 -49 -47 127 56 121 12 -67 -5 92 93 -30 -79 110 41 124 -26 97 -40 110 -75 125 112 -4 96 -120 114 -37 102 101 63 23 -35 -75 -88 -8 16 72 64 34 -89 -72 67 108 110 83 99 -94 1 -15 102 51 34 119 78 108 101 -125 14 79 43 24 19 -37 70 48 -39 43 -36 46 47 -121 118 -101 -125 115 -18 -85 84 -125 96 118 -66 30 76 -127 123 -46 79 -98 -10 -76 -70 84 -36 -67 93 -79 -112 -21 -87 -28 84 -33 83 6 -68 121 44 40 60 -96 46 2 -89 -66 31 -74 -97 -80 67 28 -101 83 94 -32 46 71 45 -56 -4 70 41 121 113 -120 115 -24 9 -95 0 -57 77 -77 -83 59 32 11 70 -75 -44 70 -7 -20 108 39 112 -1 -47 111 91 -97 -57 63 81 93 -74 26 116 28 1 -48 -66 -109 38 -33 29 55 27 -85 -116 -110 -67 100 -22 13 -114 31 36 -32 86 -119 -90 3 52 0 103 -23 -102 -40 56 74 106 -118 86 -7 65 53 79 -114 -111 107 110 39 -71 -40 43 16 36 -6 53 113 41 -105 77 -72 -61 -85 -71 -53 -123 -90 10 -60 117 -27 -115 114 -88 -38 -115 -124 117 -12 1 -77 102 125 -93 119 -25 40 -14 57 -113 51 -2 -46 -12 -6 71 127 -88 71 62 79 39 -47 110 55 -40 20 -120 3 -75 93 61 -8 112 -36 99 -41 -81 -30 -22 7 -56 -4 -66 -68 -21 18 50 68 70 46 63 -101 -114 -125 58 48 -119 -44 -101 -114 76 -112 122 -14 5 -48 109 -85 -99 110 15 -91 -61 48 26 80 6 6 34 14 -122 43 -60 -12 84 23 27 38 -5 118 123 -125 -21 -48 21 55 -122 -33 -26 65 8 -25 2 -34 -68 -75 -19 48 -1 -81 47 -15 -49 74 114 19 -41 -106 108 -68 -58 -34 41 30 -3 -37 -23 112 76 -96 -36 59 127 28 88 52 -13 -43 -103 -15 33 -98 -85 -7 -112 -111 84 -35 90 -104 -93 -5 84 55 75 70 40 75 -9 31 -52 17 123 -60 -71 -100 -11 30 41 -23 -19 90 -108 123 14 31 -44 107 91 -89 100 -123 -117 109 -78 -42 23 96 -40 119 -29 -22 94 -79 -39 98 96 94 11 -110 -99 -53 -34 3 -50 -55 11 72 -40 -45 -126 -53 -42 -108 -76 -51 -119 -35 -48 35 -69 -47 -119 39 34 -35 102 23 35 -102 -45 -23 -75 -106 -66 98 120 104 119 -37 -24 115 77 94 -94 -121 57 -49 61 30 88 -123 3 83 -76 -74 -93 -50 22 25 54 -64 88 -87 -38 117 -91 -42 -27 116 -77 -74 81 -115 69 26 -89 -115 -47 71 -9 35 -98 27 -38 49 -114 61 -126 20 -53 -63 49 46 110 65 114 -103 -25 39 -87 -18 88 11 -5 -24 118 87 -33 -19 8 86 -7 -63 118 3 112 97 -55 108 39 51 -36 122 24 -119 -86 -14 74 100 -111 118 -90 -15 68 57 17 77 0 -68 41 -9 15 124 121 -15 82 77 -109 -89 -120 90 100 -109 39 -81 -47 -110 31 -57 -38 -89 -61 0 -10 57 -75 -20 52 96 121 28 46 -73 -44 -40 -86 49 -117 106 -41 100 31 -51 105 -73 -26 21 -111 3 -60 -9 -104 35 67 29 -66 106 84 -103 4 72 -78 89 -106 24 -18 52 124 87 54 -73 -64 -68 -113 -37 -55 122 -22 -23 110 106 126 61 -71 -2 -64 3 -62 -8 18 98 -80 7 26 17 -69 -61 4 -14 -62 13 44 -63 1 -49 95 -72 68 108 -88 26 -40 87 55 -26 -65 -80 -66 -114 96 125 -34 38 -8 96 -61 -4 48 -108 -2 30 -17 31 -72 -27 78 37 -1 -32 69 26 76 17 68 -31 50 -90 -113 36 -126 -58 54 43 68 -5 -28 36 -41 104 100 -122 114 -66 61 -93 88 104 -97 -112 60 72 122 29 -74 30 -86 -78 -109 -48 -57 -46 -23 -47 85 109 -89 112 109 113 -9 42 -88 -17 -55 49 68 -69 109 61 -10 -122 15 110 126 23 8 -101 60 11 -23 94 -80 83 79 -100 -16 93 -29 -4 -100 -123 -10 9 -118 20 74 23 -72 -38 106 -85 36 -82 29 -65 3 2 111 -60 96 -12 -94 100 -19 -11 -34 107 -97 -12 101 65 -38 74 -23 -97 -57 -91 86 53 82 73 115 -17 45 118 -118 -35 -68 -6 -73 45 79 -31 125 -101 39 -17 -107 13 36 69 114 -77 25 109 -76 37 -2 -2 -78 -111 -60 -111 -104 -70 5 -16 115 86 -49 -103 -33 -90 -55 76 4 -22 30 -99 50 -102 -20 -85 32 -62 -58 -67 -46 -52 -37 43 108 107 -9 127 23 -6 98 112 3 41 -85 -46 -81 73 -62 86 -51 38 103 -108 -124 -86 65 -6 103 -122 46 64 -105 -88 -89 41 116 33 82 21 0 -118 28 -72 86 17 70 -75 -31 -64 -42 -74 29 -119 -94 -97 -47 -125 -22 -22 90 107 -57 22 68 -102 80 34 -75 -74 24 -74 93 109 -18 -57 69 112 52 48 37 27 22 88 103 -92 48 16 114 -44 -78 -99 -13 23 26 107 109 123 -38 49 -24 -109 -17 -123 76 -119 -26 16 48 -24 -15 33 -11 -43 13 93 -52 -93 122 38 -20 -76 -69 45 114 46 -31 -88 -28 -51 -71 47 -108 122 85 31 -118 -98 -118 11 -127 124 59 119 -75 114 109 -108 83 51 -13 9 -96 -72 28 -43 -83 -55 -10 -103 61 32 14 5 -117 43 47 76 23 -2 -99 55 -49 52 -23 17 3 -97 -101 -85 20 65 -92 30 105 -55 127 -103 -18 7 62 106 -19 62 87 -37 19 73 59 -34 -44 -61 -69 111 83 106 -72 -85 85 120 51 7 -16 -54 -99 26 125 -65 -22 -2 10 -68 -73 78 -114 -61 103 49 85 83 -58 -36 62 127 43 -72 13 40 101 -77 -64 124 75 -18 -82 112 101 100 -108 -12 118 -42 -84 103 82 -62 -23 -102 -28 33 49 -107 -93 -36 112 -65 63 -43 -70 14 30 -66 127 -3 -59 -87 -47 -75 -80 -8 -76 -66 -88 70 115 -82 12 -32 39 127 -3 30 43 -19 -114 -121 -115 103 -13 -65 114 -84 52 -60 7 96 52 55 -125 59 -97 -126 34 69 57 90 -123 39 -62 -107 -52 79 33 -4 32 87 -96 -13 -53 74 -1 90 50 -126 -33 -51 101 -58 124 -123 -6 113 18 16 -51 109 100 -27 -86 -117 42 -80 49 -50 62 61 -85 96 -35 50 60 82 27 41 -98 -45 6 -101 54 -71 -94 -84 29 -46 -71 -26 94 74 19 90 46 16 108 -56 51 -39 21 -119 51 1 63 41 -118 -58 77 -103 -22 43 -92 -20 -19 19 80 16 -101 22 74 90 37 -79 4 90 55 -103 -115 -49 78 99 -55 -34 102 -40 -106 -35 -101 -111 -92 109 -34 59 -59 46 43 108 100 -98 -75 -104 41 -18 99 46 111 -87 84 102 -58 -103 -48 -103 -115 -25 -20 69 107 -125 -20 19 -105 24 -13 -4 -4 -29 -84 27 -92 -11 83 43 -12 -46 -58 -27 97 -45 -68 45 -34 -41 -46 56 120 26 -53 -52 20 -53 -100 15 115 -103 -35 27 -7 -89 -86 -5 -49 -57 96 49 -114 31 -98 -44 19 -7 24 57 94 86 -32 -16 -57 116 37 96 -39 -61 -89 -89 -29 -68 68 102 -111 -112 -123 -89 27 -15 -50 -1 -115 -45 116 103 -115 55 30 111 39 92 66 105 22 61 -59 10 -23 -39 -74 -111 55 -77 113 -8 -22 -5 -37 -11 -125 -89 -19 47 -125 75 -74 -44 -5 25 69 116 -53 -85 35 74 24 50 -53 98 32 -112 -55 -50 -66 -42 42 -119 -91 -82 -49 -70 43 -112 -25 -11 114 -22 -51 -29 -8 95 -126 122 25 68 -84 120 -35 71 -21 -53 -77 -41 -94 -94 -11 -46 1 79 127 -107 -108 -78 119 -13 53 -112 112 127 -11 -14 -42 -118 -53 -79 -38 -13 -86 -67 25 118 -37 15 77 60 -73 67 -50 1 29 -48 -83 -67 41 -71 113 95 -75 84 52 70 -39 -92 63 45 17 -4 -35 43 -50 -75 -120 -126 -38 11 -120 -58 -18 25 41 49 -24 -3 -64 -107 -74 -117 78 126 -88 -56 -56 -17 111 85 -40 -63 -58 40 -124 52 66 12 33 -98 -23 -93 -116 -32 96 55 -20 -56 58 -81 95 108 -106 30 10 -65 43 13 25 127 -79 -20 -98 -51 22 38 107 76 20 18 -42 102 -104 -126 102 13 -75 27 -5 -117 -104 117 -63 122 39 -100 115 -48 -21 114 -123 -32 24 -114 70 -105 -44 84 -126 102 -87 -74 -97 111 -124 94 101 -43 124 -20 50 80 1 -116 -62 -59 77 -8 36 100 -72 37 -92 50 -67 86 41 -69 25 -6 -82 -22 61 -27 -12 -57 53 53 92 95 -87 -5 95 53 43 101 -2 -90 20 -30 82 86 -121 -33 -110 74 -65 -76 36 107 113 -85 -80 42 -112 13 9 118 -117 103 -42 41 51 94 44 126 103 31 82 93 -104 -96 -112 -83 -70 16 107 -37 -101 14 -68 77 121 -16 -71 -11 71 -86 112 65 -8 -6 -119 -44 -96 62 -57 22 58 88 20 82 -95 -67 88 26 -27 -37 -75 -6 121 -3 78 107 99 -95 -58 -113 -21 -34 -88 43 -10 -74 -118 -89 112 -19 -111 22 96 -50 -108 10 -16 49 16 -47 107 43 -42 -106 -87 81 113 111 -106 -33 -15 -22 -63 95 -51 86 67 -16 -19 44 36 -50 57 75 114 11 120 -108 0 34 -3 107 -125 -10 -61 120 20 -64 93 78 -31 -115 -39 38 -44 30 -51 57 -115 -70 -122 124 24 39 -72 109 48 111 123 -75 -54 -72 9 -80 -56 52 9 -47 -52 -107 94 2 -89 123 54 -117 120 39 -69 -74 48 -19 -36 -76 -55 32 1 -100 -43 106 42 -124 103 105 103 -57 -106 35 -51 -47 5 17 -42 -27 24 -69 100 -87 -80 81 -67 -10 126 -119 -109 -32 81 63 106 65 -113 -115 89 93 -11 -65 -104 -7 -6 8 21 22 -112 -103 -40 71 -78 -116 -86 -122 123 -103 -101 -119 -62 -12 -27 18 97 98 -100 55 7 -95 -100 -10 -56 -42 109 -122 2 -64 -82 -106 -87 69 30 115 -48 18 -101 85 11 41 -60 15 -118 68 33 127 19 -83 84 -5 56 -19 36 -8 -66 125 74 -27 59 -66 -30 -93 50 93 -2 -122 -44 -81 40 25 114 56 119 -37 66 70 31 -3 39 55 -32 -34 -109 118 -23 63 7 61 -8 -59 -41 83 119 -18 86 -52 58 -63 -67 120 -68 54 6 -49 -117 50 109 -64 61 -114 105 -122 -49 34 71 45 -31 41 -32 -101 -50 -16 18 39 88 -126 -1 -72 105 -74 -111 119 -43 98 -82 1 -20 71 72 -4 -58 76 -100 -13 -66 104 23 -104 14 116 -126 -120 71 -65 83 24 65 107 68 46 76 120 105 7 -45 23 -22 -12 93 -83 18 -116 -105 -64 65 -114 22 112 -107 -69 -75 -50 -127 -110 64 -25 -44 30 -25 53 -61 -76 3 -118 -118 120 -54 7 -94 -38 68 126 124 46 50 24 55 -122 -34 18 124 81 -40 -65 -42 114 -16 55 73 -31 117 -113 -3 -105 -81 -79 -70 -119 108 71 101 56 113 -99 -4 -91 -31 68 55 39 -58 7 -2 -7 53 45 37 115 75 -47 79 -55 88 -60 115 -23 21 -51 35 55 -37 -127 25 -6 -53 -82 73 25 1 -100 32 -12 -48 -123 23 -99 73 99 111 -36 12 -33 56 -122 87 -34 16 -60 74 91 -64 -74 67 108 -111 -53 42 32 29 -29 -64 80 -103 -76 -80 11 20 26 -46 -93 7 74 -30 -86 -75 -98 71 -31 -127 -48 96 55 -119 -41 -85 26 -123 56 -104 14 67 -117 -78 -120 33 -5 -45 -17 -56 -59 -30 -102 -49 -1 -81 -101 74 120 95 90 -4 -75 71 -30 102 -24 7 -15 -61 -79 63 64 -86 113 -113 -23 88 -31 -40 -115 88 -21 27 77 -88 -43 -97 -54 -55 -94 105 -23 90 79 -46 55 95 -123 33 -95 -14 -57 83 -105 33 -39 -14 59 -75 -16 -95 -52 68 -112 -50 121 -100 -12 124 105 -80 -83 -36 90 58 -71 -5 -71 114 -91 83 86 98 -100 -24 -107 20 86 42 108 118 44 88 53 -12 -6 -72 -5 -59 46 -70 78 -47 24 98 -70 -43 -116 -58 -13 95 85 53 18 15 -87 85 109 -68 28 -9 20 -77 16 -30 -37 -42 -29 -29 40 19 94 -106 51 97 93 -2 80 113 27 -74 70 -116 -115 24 18 4 -32 85 26 27 -11 -47 5 -114 58 89 -70 8 -76 90 123 15 -73 88 94 -107 -110 17 107 115 8 -41 57 85 -95 83 77 -106 103 12 -53 -109 46 57 -103 80 86 -103 60 127 -123 -76 -50 12 109 33 -100 75 -21 -12 -45 2 -2 24 -6 -112 18 96 88 -113 18 -50 -77 -68 -63 119 19 126 28 115 10 28 -87 9 102 6 -17 54 -122 84 -30 -77 -114 -120 -24 -51 -51 -26 116 -8 -29 -92 -100 88 -27 -9 -68 125 14 -62 96 92 -66 -110 -73 -115 127 -40 -38 -78 27 -26 -90 2 -126 33 104 54 -58 -121 -118 61 -73 78 -49 -53 79 52 -5 -116 -28 59 -17 -101 116 -19 -15 -101 95 90 33 10 33 9 -32 -90 83 -95 -58 92 -123 -52 -127 -56 -53 -19 -60 -65 9 34 68 106 93 87 -44 82 -76 85 -9 81 -75 -61 -28 6 -99 84 72 94 32 28 -28 -23 21 65 126 -14 9 48 125 -124 78 45 85 18 -92 -43 120 127 -122 -80 -24 99 49 -4 -85 114 -114 -120 123 120 -119 126 -27 -32 -80 122 41 -103 30 -19 28 123 -42 100 7 -36 -76 76 -94 9 -114 -90 -87 115 19 -40 -33 109 -15 28 -11 61 -13 -97 119 -85 -19 -58 11 120 -17 -46 58 -86 -69 30 101 101 -72 -49 -97 -41 -12 60 -98 72 98 61 -56 53 -91 63 -96 96 -127 100 25 -47 -121 -54 81 -77 110 -93 9 18 -10 -3 48 -55 -31 95 -29 110 -51 -65 -61 -87 95 44 11 -73 19 54 -72 -38 -85 -80 123 98 -71 59 117 -12 82 -27 21 -6 125 43 -9 32 54 23 -2 -20 69 79 -66 122 25 71 71 -13 97 87 -43 31 127 50 -88 -21 -117 -105 -115 64 30 78 -99 76 92 101 37 95 -82 -45 101 -75 105 -24 -61 89 82 -126 33 124 -101 -103 84 22 -69 -69 77 -9 44 -49 -71 28 -9 -24 -90 -10 23 -53 25 -98 54 60 -95 98 82 114 70 -6 -24 -97 -67 94 66 40 105 -47 124 120 31 -21 -104 91 -94 -93 -88 -55 -123 -65 75 19 -47 98 30 -19 28 90 -33 -116 11 -40 -82 54 -6 17 70 29 60 74 -107 14 -110 -32 -102 -79 -4 117 114 -20 104 -65 80 18 41 56 -12 -52 29 62 1 -121 53 -50 -60 110 -83 -57 90 -119 91 -50 -3 116 -39 -57 -62 -75 -123 119 -79 -38 91 73 13 -66 -51 125 63 49 -117 108 -49 -50 -114 106 88 43 47 6 -11 -51 -112 51 -125 -12 23 20 -81 -36 -118 9 112 -51 -46 -58 -8 -16 -3 -29 114 -106 92 113 80 -3 78 85 2 -4 98 -47 50 -38 118 -64 113 -21 95 98 83 -62 -92 -65 -1 24 17 -34 117 -30 -13 27 69 90 -29 -17 -96 85 -77 40 58 28 28 87 -49 -106 96 89 26 125 -57 -27 58 -99 -2 31 -116 -21 7 -18 79 -45 7 1 122 -46 -34 85 61 3 52 113 -19 96 -126 93 29 29 -43 103 111 -82 -38 -5 -40 -84 -53 -40 58 -1 8 65 -92 28 -93 105 124 -63 -49 -111 -55 45 -89 96 3 25 77 -79 86 -20 -61 69 -31 53 -8 -43 -18 114 125 -121 -24 95 -13 22 -56 78 38 76 -7 -11 -59 -87 22 -79 -67 46 89 -49 87 -83 -62 -119 50 74 110 69 95 116 7 49 -109 -121 98 -74 9 -5 -80 -26 -107 -22 -44 122 -16 -61 69 -123 113 -89 -24 12 121 -6 -43 -38 -112 81 -3 -60 -89 -114 -109 -114 -10 111 46 -114 123 -72 -35 61 30 108 -112 -39 123 -15 127 -105 96 102 -28 68 47 71 53 79 -98 19 -43 94 78 -102 -61 -94 119 69 -48 100 100 46 -32 43 41 -19 -59 -20 -93 -78 -61 -120 116 -42 -52 -123 -76 -53 -20 43 -37 13 -82 58 -73 -103 123 -10 25 65 87 39 80 -117 55 -59 9 69 35 -1 -25 72 -20 -68 -11 -58 -85 79 -26 125 -94 -34 -115 99 40 118 118 -1 65 100 -3 -110 98 57 -112 -29 21 -106 -44 -83 93 127 -70 -85 -110 -70 102 38 65 81 -108 89 -17 119 64 97 -16 -95 -36 -25 80 -19 41 107 85 -89 -53 36 37 31 -113 59 106 -16 -88 -127 104 70 -45 -35 -43 -96 69 -41 5 -94 -112 90 -45 -117 21 -97 -15 21 36 -100 81 -2 -104 -87 -50 27 95 -1 99 42 46 -8 -48 53 -106 -24 -96 -125 -47 79 10 -116 -69 -47 -11 -112 -62 -101 121 12 -81 -124 115 -119 1 60 20 70 -77 99 2 -95 -121 7 -98 76 117 -28 -41 -40 -116 -86 -75 -73 -49 -99 80 -74 -29 -103 78 24 23 122 32 -29 -35 80 83 -102 94 -19 30 101 50 5 -93 89 1 -90 38 -63 123 44 -4 63 44 -50 -12 83 81 -59 60 -36 -25 -32 29 75 102 -73 113 -51 -101 -93 119 -69 41 -110 -16 28 61 29 -87 -34 -119 -60 -103 41 69 -66 12 92 38 47 -100 -89 -127 43 -78 -97 41 110 -67 105 60 43 20 80 -18 -125 125 -9 70 -94 40 -2 -71 62 48 25 -75 -62 34 33 -10 88 53 92 102 -60 95 -120 110 -28 -88 92 -60 90 35 -40 40 -99 -65 125 -71 -57 92 5 127 90 33 -38 -127 -123 -28 -32 60 -27 -85 -79 73 100 -102 33 2 48 109 -124 -35 98 -123 -70 18 16 -82 -108 -106 58 -69 80 65 -77 -41 -48 -125 -32 67 -115 109 -96 105 57 10 -95 76 110 26 -65 43 -75 114 110 56 -42 -121 -121 -21 -53 -1 112 -84 -45 -36 90 36 -25 98 78 67 55 -24 -85 -11 74 -22 118 -95 5 19 27 -72 62 -61 -31 20 -1 59 -18 -74 82 94 106 98 -79 18 -10 -54 117 70 -39 -62 24 76 -86 10 -102 77 117 45 -34 -28 -79 -48 -62 -82 -66 78 2 -63 -79 -93 -69 -58 -100 -123 122 33 74 -63 70 111 -28 39 37 16 8 -63 -64 -32 -86 38 -52 85 21 -103 -6 -74 17 117 108 13 -112 58 -127 -102 54 57 34 -38 104 73 -123 79 -38 -19 -17 114 -35 17 72 -98 -34 104 86 75 -21 -37 -110 15 16 40 -15 116 -122 -115 -117 -42 -40 -90 -52 26 66 -81 18 -41 48 -10 88 -122 -19 33 92 -89 99 -117 104 95 -86 94 29 -68 47 -47 78 23 -59 -94 112 -67 -40 74 79 64 -42 -37 44 -107 -55 -13 -110 62 -31 -100 -82 -48 1 -109 88 -99 -118 -63 -104 -42 83 70 24 -115 102 -62 27 -33 54 -3 -104 -100 -86 81 64 -78 -71 117 -9 35 -93 114 96 77 5 -47 -25 -114 -18 2 -16 58 82 98 85 51 -97 -90 -12 94 93 -94 101 -83 75 72 79 -5 53
24 173 9 289 10 247 10 37 7 715 11 791 13 151 14 279 12 1167 12 613 11 2045 13 569 12 399 10 665 11 285 11 1781 13 1431 12 547 12 1437 13 971 13 1555 14 1763 13 1445 15 925 13
24 -30 3 18 -22 28 22 29 -30 -8 -13 -20 -25 -6 1 30 -38 3 24 -40 -21 6 21 -27 36
384 0 127 1 127 2 127 3 -127 4 -127 5 -127 6 -127 7 127 8 127 9 127 10 -127 11 -127 12 127 13 -127 14 127 15 127 16 -127 17 -127 18 -127 19 -127 20 -127 21 -127 22 -127 23 -127 24 39 25 127 26 127 27 -127 28 127 29 127 30 -127 31 127 32 -127 33 127 34 127 35 127 36 -127 37 127 38 -127 39 -127 40 -127 41 -127 42 127 43 -127 44 127 45 127 46 -127 47 127 48 -127 49 -127 50 -127 51 -127 52 -127 53 -127 54 127 55 -127 56 -127 57 127 58 127 59 127 60 -127 61 -127 62 -127 63 127 64 -127 65 127 66 -127 67 -127 68 -127 69 127 70 127 71 -127 72 127 73 127 74 127 75 -127 76 127 77 127 78 127 79 127 80 127 81 127 82 -127 83 127 84 -127 85 127 86 -127 87 127 88 -127 89 -127 90 -127 91 -127 92 127 93 127 94 127 95 127 96 -127 97 -127 98 -127 99 127 100 127 101 127 102 127 103 -127 104 -127 105 127 106 127 107 127 108 127 109 -127 110 -127 111 -127 112 -127 113 -127 114 127 115 -127 116 -127 117 -127 118 -127 119 127 120 -127 121 127 122 127 123 127 124 -99 125 -127 126 127 127 -127 128 -127 129 127 130 -127 131 127 132 -127 133 -127 134 127 135 -127 136 127 137 127 138 127 139 127 140 127 141 -127 142 127 143 -127 144 -127 145 127 146 127 147 -127 148 -127 149 -127 150 -127 151 -127 152 127 153 127 154 -127 155 -127 156 127 157 127 158 127 159 -127 160 -127 161 127 162 -127 163 -127 164 127 165 -127 166 127 167 127 168 -127 169 127 170 127 171 127 172 -127 173 -127 174 127 175 -127 176 127 177 127 178 127 179 127 180 127 181 127 182 127 183 127 184 127 185 127 186 -61 187 -127 188 -127 189 127 190 127 191 -127 192 127 193 -127 194 127 195 -127 196 127 197 -127 198 127 199 127 200 127 201 127 202 -127 203 127 204 127 205 -127 206 127 207 127 208 127 209 -127 210 -127 211 127 212 -127 213 127 214 -127 215 127 216 127 217 -127 218 127 219 -127 220 127 221 -127 222 -127 223 -127 224 127 225 -127 226 -127 227 -127 228 127 229 127 230 127 231 127 232 127 233 127 234 127 235 127 236 -127 237 -127 238 -127 239 127 240 127 241 -127 242 127 243 -127 244 -127 245 127 246 127 247 -127 248 -127 249 -127 250 -127 251 -127 252 -127 253 -127 254 -127 255 -127 256 -127 257 -127 258 -127 259 -127 260 -127 261 127 262 -127 263 127 264 127 265 -127 266 127 267 -127 268 -127 269 127 270 -127 271 127 272 127 273 127 274 127 275 127 276 127 277 -127 278 127 279 127 280 -127 281 -127 282 127 283 127 284 -127 285 -127 286 -127 287 127 288 127 289 -127 290 -127 291 127 292 -127 293 127 294 -127 295 -127 296 -127 297 -127 298 127 299 127 300 -127 301 127 302 127 303 127 304 -127 305 127 306 -127 307 127 308 127 309 127 310 127 311 -127 312 127 313 -127 314 -127 315 -127 316 -127 317 127 318 -127 319 127 320 127 321 -127 322 127 323 127 324 127 325 -127 326 -127 327 127 328 127 329 -127 330 -127 331 -127 332 127 333 127 334 127 335 -127 336 127 337 -127 338 127 339 127 340 127 341 -127 342 127 343 -127 344 -127 345 127 346 127 347 -127 348 127 349 -127 350 127 351 -127 352 -127 353 -127 354 -127 355 -127 356 -127 357 -127 358 127 359 -127 360 -127 361 127 362 -127 363 112 364 127 365 127 366 -127 367 127 368 -127 369 -127 370 -127 371 -127 372 -127 373 127 374 -127 375 -127 376 -127 377 127 378 -127 379 -127 380 -127 381 127 382 127 383 127
0 30 24 7 1 3 16 16 0 1 0 0
480 -65 -28 43 -68 -60 -114 -126 27 84 -39 10 18 98 47 -59 94 -46 108 -120 113 2 70 102 28 -127 117 20 -28 -66 -10 48 44 109 85 -4 -53 97 -95 -29 -121 -72 -69 -19 67 41 -111 78 -104 46 -48 -109 -41 76 53 -94 -18 -98 -99 -73 -101 -83 73 -78 114 -76 115 10 -33 93 -107 7 -64 41 113 73 106 126 45 -57 71 114 55 -77 1 -78 -57 76 85 -107 -73 103 81 104 30 52 76 51 89 -5 -67 -109 24 -39 83 67 -127 23 89 -49 42 -83 104 -74 -123 9 39 52 73 114 -8 72 64 53 30 35 7 -39 29 83 73 -70 -25 63 -92 25 -34 67 75 3 3 -86 -1 -108 -74 0 -35 -7 64 25 -21 -62 -83 62 118 -127 111 93 93 39 -2 -60 125 -117 -109 26 40 59 -119 76 -39 84 16 108 -4 90 -16 83 112 19 99 35 100 -3 72 -96 -76 94 42 -115 -33 -28 100 -61 -39 8 25 -41 84 -92 -43 -89 -96 59 -36 -104 -58 105 -38 -25 123 -101 93 -47 22 -91 88 -28 2 -55 111 116 -63 -36 103 -86 17 -113 -99 -78 -6 -104 -47 94 -71 -62 74 -14 -84 -18 33 -75 14 6 13 -11 -80 -3 52 -94 -6 -4 15 60 110 -35 127 48 29 46 1 68 123 52 -119 -74 -85 -111 53 88 -47 -31 0 -26 32 7 -24 -118 24 112 -46 -91 -87 -60 36 52 -86 22 -84 122 90 -9 71 81 -102 25 61 -38 83 30 84 100 32 -70 10 36 29 -24 -45 -92 21 6 75 28 -14 7 -100 -26 87 -31 -53 -42 -14 17 41 90 78 121 36 -46 -29 -11 -100 91 120 -95 0 -4 -14 -82 68 -73 62 -83 53 -99 123 34 86 53 33 -38 -95 73 85 20 5 -81 22 38 15 -14 -71 -70 15 -23 -7 35 102 -81 113 -116 124 32 8 -59 -53 1 -103 76 -122 -2 -57 -18 -117 100 56 -63 -5 -117 82 12 86 115 -6 66 -4 21 8 -41 40 48 -6 -19 118 12 -57 32 -118 97 121 -109 -105 -69 -79 -72 -57 37 88 38 -47 126 40 10 89 -83 12 -24 -69 -65 4 -105 -122 68 -34 -124 -81 -49 -25 -6 -112 -90 44 101 49 -34 79 67 25 124 -96 -49 -90 -29 124 44 51 -20 42 92 -3 -7 -45 57 90 18 113 -84 -64 100 -39 102 -46 31 125 -84 20 -23 63 -30 -42
5040 76 112 -47 73 15 -68 -112 57 33 76 -1 -11 -77 -28 48 -70 3 114 -11 -67 -32 -29 -117 73 -44 -75 -106 87 76 -8 54 -74 25 -10 -117 -27 -15 -71 111 -75 -108 64 49 76 -101 4 25 -1 89 -118 33 98 -88 -126 -119 114 125 -2 -47 -102 119 20 -24 -67 31 -73 -21 -63 118 114 -82 -109 63 49 -82 -29 -87 -105 -71 -48 -64 106 1 -29 108 52 -99 -54 -49 76 107 -84 30 121 -44 -8 11 77 -82 89 -123 86 -15 -124 63 1 -93 77 116 -110 -96 72 -118 65 56 -6 4 110 105 127 81 -74 9 -97 -26 -26 107 -98 65 25 -49 -51 78 23 2 -111 -28 -122 117 84 -73 61 -44 19 -23 -2 76 83 24 -45 -23 -35 -51 -117 -52 -112 -5 -102 9 -106 -120 -102 -67 90 -74 -110 -22 -8 -91 41 -67 48 -65 101 0 78 -125 -40 19 -58 -77 39 -69 94 20 87 -94 -125 14 110 4 47 -14 102 53 -26 88 -110 59 8 77 -56 58 -69 -68 -58 54 99 110 4 115 82 35 23 95 -52 97 61 -3 -81 -100 0 -57 -71 -81 -52 50 -91 -111 99 -64 -71 77 -31 -98 -16 -80 124 24 -119 -107 71 7 -29 127 -125 -55 17 23 -17 -125 -30 -50 23 25 -9 100 5 64 -101 -95 126 49 127 39 -41 29 106 67 55 25 94 -50 53 115 20 -93 -123 -121 -110 113 22 -65 100 78 -112 59 -26 49 2 27 29 -92 -34 88 -120 -35 15 -94 107 69 85 -98 -122 3 -79 65 54 94 45 68 -36 -50 -69 -104 59 99 -12 -105 -28 -45 0 -113 42 68 -26 43 -2 -26 88 78 39 19 84 5 -120 -29 15 -17 12 105 41 103 95 108 23 91 -83 30 82 88 66 -22 19 -26 -85 46 -32 -82 -56 -77 64 17 62 73 -1 -123 -118 3 -122 -85 -45 72 -53 69 -94 81 -42 -94 -69 100 -7 66 110 -121 -64 4 -19 104 -115 94 -92 -41 -55 14 68 -113 54 -106 66 -102 102 102 48 87 -53 37 -71 115 122 -68 -48 -76 -57 -62 -101 124 127 -57 -71 -19 87 105 -37 -39 -18 -61 -122 -53 -71 55 -76 50 -2 3 -82 -50 17 -104 -92 24 -18 -45 3 -57 -32 -117 96 86 88 17 0 -91 -101 18 59 6 65 56 117 -57 46 90 50 -23 -123 -24 -112 93 -24 70 96 117 -11 8 -6 -90 -12 -46 46 69 55 -42 106 -8 -58 86 -108 121 -78 27 -34 -53 -80 40 77 73 107 101 10 -54 12 5 -106 -15 96 102 -22 25 -76 -100 -13 62 57 -63 -25 7 -35 29 94 -73 -40 52 41 118 -84 86 106 -71 62 -58 14 57 -83 -67 102 106 50 -24 113 16 -31 -44 -19 41 -59 -6 77 61 48 -53 -67 -49 -5 4 -59 -61 104 9 -33 -14 -107 56 -22 87 27 114 116 90 -26 62 36 30 27 102 -88 -125 118 -30 106 -70 26 92 -72 116 -66 -69 -120 -58 110 -79 -30 78 63 119 -33 -112 125 -90 -29 42 -64 -14 40 -50 88 64 120 -81 -54 -77 -67 13 22 -34 39 65 -4 -79 -38 -79 9 -27 77 120 68 -100 7 -112 16 122 32 -38 38 -43 -109 31 55 -98 -42 -1 70 -59 2 86 -90 44 95 -125 -99 17 84 5 -63 20 125 -106 2 -4 -32 97 -96 -47 97 71 60 -48 34 -73 -86 -11 39 80 -93 -127 -97 -91 -63 -45 103 -64 122 78 42 46 80 -95 71 86 -107 -74 22 54 121 97 -12 106 -89 39 112 78 4 -69 -85 -34 39 35 -86 109 74 -46 -9 76 -17 108 60 -83 78 121 -96 -53 60 66 74 -69 -105 -85 50 45 -70 92 -2 -7 62 -70 -93 -83 103 -70 21 -30 -38 -97 -108 30 -58 -23 -21 26 117 -2 54 -35 104 -45 86 -26 112 23 30 -118 14 1 47 51 59 123 25 81 70 96 87 -37 76 75 48 -76 -122 -82 62 54 16 91 37 -110 59 -35 -10 37 -41 -82 75 -127 73 -107 62 120 91 -22 -59 76 124 -120 11 -62 67 -115 28 -79 -62 39 72 69 -121 -61 112 91 -46 -39 60 104 77 69 81 99 -21 95 -102 13 -19 48 -126 13 63 72 -46 -60 -1 70 88 -112 -95 76 -105 -42 -100 -97 92 -118 110 66 55 -41 -42 7 119 -92 -78 -67 38 -51 -5 67 -30 125 72 -52 -38 86 126 98 -107 -44 -106 -58 12 -31 -61 12 68 15 -79 -116 -56 15 -79 -87 -50 26 82 12 110 74 -23 -37 91 4 24 -90 71 43 -42 -2 108 -59 121 60 -71 -71 72 63 24 122 -117 62 36 41 120 84 40 86 8 66 -102 96 122 -102 -77 21 -95 30 62 -119 -108 88 13 -66 122 -113 -125 18 -31 126 48 49 -70 -58 102 58 -103 21 125 -15 -88 -50 -117 -88 35 36 -61 4 18 99 71 124 8 80 -21 112 116 -70 -4 56 31 -94 83 -69 39 -48 65 -93 -82 -33 35 -43 47 96 11 -76 98 -115 -45 35 -106 102 6 -108 -82 111 111 -80 -34 26 9 98 22 111 77 -35 20 -115 -4 -4 109 -104 56 114 -60 73 -35 63 -14 42 -16 -27 121 -2 83 -77 -71 -15 88 96 54 -32 -52 -98 119 -88 -53 -103 43 59 -7 24 96 48 -72 -5 35 10 30 47 107 -49 24 -38 1 -81 59 35 -111 96 39 -32 -102 73 39 86 -66 23 68 -97 -3 -52 -43 -31 79 -66 59 74 -31 122 -28 0 70 90 125 92 21 4 -122 -103 -79 -44 118 -58 112 13 -104 -121 -20 -116 38 -106 -85 -102 18 -63 -38 -96 -47 -63 -30 72 -86 88 -102 84 40 81 114 -26 92 21 38 -13 29 4 -31 -64 -14 -76 37 91 115 18 43 23 91 96 -13 -5 -109 -59 48 115 106 88 51 -28 11 70 -9 -36 35 119 31 80 18 34 54 42 7 -6 52 -88 126 89 -36 -20 -86 -10 -89 123 -1 97 96 5 -1 -27 -60 -100 13 124 -31 74 -82 -110 -85 2 -56 63 69 -37 -14 -104 90 60 -16 99 90 85 -36 -23 91 117 68 -121 98 -24 106 -95 -127 -82 6 39 -11 -96 -47 -18 -1 82 60 21 -117 116 79 -116 -60 89 -98 -106 -96 106 -15 -42 45 109 75 -21 105 -127 -93 -99 -120 34 -2 86 -62 -119 109 113 -18 76 104 126 -13 44 -75 -34 32 -3 89 120 -63 62 32 118 38 -125 60 -56 -8 65 -5 -16 -13 94 48 115 -105 89 52 -110 -80 37 73 -110 -51 -95 9 53 -25 -49 20 -122 -33 -43 2 -112 -13 -29 100 -57 -124 -96 0 117 -36 86 -98 33 65 -39 -16 97 115 -79 65 122 34 13 2 -30 -23 -3 -66 -93 -59 -20 -94 -22 77 -39 27 40 -115 79 -11 16 -86 2 66 -93 -49 113 -65 -109 -23 -29 -79 -15 75 86 -18 52 62 -93 -50 112 126 -103 57 35 -72 38 39 -112 90 -67 -121 -9 53 -83 108 118 79 -10 -51 -57 -113 100 104 16 -14 43 77 -116 104 -104 101 76 -28 19 104 85 124 -46 -24 -57 -86 -15 102 58 62 112 -8 79 -44 82 43 -33 27 25 -83 -110 108 -70 -35 80 -21 -1 -23 94 -36 -23 2 -25 -49 -116 46 3 -37 -104 -107 -21 7 121 54 117 29 -46 -69 -74 -63 112 109 110 0 43 -112 -81 -67 49 -29 102 99 -72 39 120 -109 -65 -69 102 -17 -105 83 37 99 -121 -91 -52 -67 -22 79 -49 -86 -84 53 -30 25 -59 -95 -66 76 -38 -6 96 6 95 -64 44 73 9 25 88 -73 -105 -8 103 -106 50 -78 -32 -65 58 -7 -96 -26 -68 102 14 -111 45 -49 -44 -101 70 94 -109 -53 87 -85 4 10 -56 -30 29 -36 -17 -90 -103 -113 100 -113 -42 118 66 118 122 103 54 -108 10 -37 -125 127 -50 61 -39 -64 -103 -123 25 -110 15 14 -81 -103 97 -20 -107 97 -122 -89 -78 63 -108 -78 -73 -79 22 -44 117 -101 -102 35 -2 110 -8 21 -60 50 -108 -7 -113 -63 87 107 -48 -66 25 72 -48 125 87 -5 90 80 -90 -93 -118 91 -94 -121 -104 74 76 63 -102 -17 -91 68 -43 -70 -92 -89 -126 90 -113 30 97 -23 108 -72 36 -18 -89 -84 -41 26 24 -50 99 -16 -14 97 47 -53 114 -90 -69 -3 6 -107 -41 -114 36 -109 115 -56 13 3 -84 -46 60 -64 112 -56 2 98 23 112 23 40 22 -109 -49 19 -65 -111 -53 -38 -23 -8 -17 -4 103 58 -59 -123 108 -55 122 11 82 55 -97 0 88 -94 6 22 -59 81 75 -18 121 -115 -11 -49 84 -84 117 -21 -45 -95 98 8 40 63 125 -73 126 -29 -89 -44 22 -46 -71 -84 -124 85 60 -53 110 -96 -90 -52 0 -121 60 100 121 -16 -111 -1 48 19 -6 -120 -22 -42 -14 60 60 12 -58 13 22 118 -39 28 -28 -66 -10 15 -66 -54 9 103 35 104 -78 -117 -54 -49 100 -78 -32 -43 16 13 37 93 74 86 33 -93 46 29 -84 -23 -65 -80 47 104 87 93 38 47 75 -107 -104 2 53 -4 108 -17 33 -13 49 29 -20 21 -29 -115 25 -88 118 -100 -16 -45 112 -85 24 -28 -10 -21 84 -97 24 -109 21 127 -24 0 116 -20 1 75 -113 -44 84 -70 35 125 -46 86 46 20 51 -117 -112 33 -106 85 104 105 0 -75 2 80 24 33 -94 -57 71 96 43 -98 32 -95 -78 -44 -55 123 88 22 -103 -5 37 19 -40 16 -118 53 -52 -112 16 48 -94 -23 -117 -101 -123 31 -75 -61 -78 3 25 -123 -108 -88 -65 24 -36 122 -94 88 -59 -27 104 -124 -81 68 105 125 59 -120 0 20 -42 -55 -43 -121 55 87 25 -4 34 14 -89 -123 -101 -27 -41 -88 101 -1 53 -21 41 -66 -79 -39 -9 69 -24 -77 38 -26 -126 126 -116 94 77 -46 92 -56 49 -61 -31 -51 49 -5 111 33 32 89 -26 55 25 28 119 -82 -16 -29 70 42 -71 -81 -28 124 93 82 -84 39 -74 106 -6 51 -76 78 -1 18 -42 -39 76 92 12 48 -94 -1 -2 -25 6 111 -103 34 -76 -50 -53 85 79 38 -77 -81 -124 42 -79 116 16 36 -40 -43 -13 102 65 94 67 79 -108 -108 -19 8 22 113 -52 41 -59 96 -62 63 -37 -113 -110 -114 -18 59 -104 117 -109 58 39 -121 74 34 100 -96 88 90 110 119 -17 -29 -34 77 -39 -81 113 57 64 -38 12 0 92 104 91 77 -92 -15 58 -109 -57 -30 74 108 -63 45 84 -57 12 116 20 7 -26 27 -40 -113 106 50 -39 -24 66 3 32 57 110 20 -89 -104 12 104 110 84 -22 67 -72 -68 48 80 -93 29 -116 124 -107 -101 20 9 89 -15 -109 -38 47 -52 12 63 -96 18 -6 7 -25 125 -29 -95 -22 41 -110 7 57 -126 84 -66 8 -19 108 -57 -61 108 65 84 107 57 -74 75 123 1 -9 -39 -40 14 10 55 85 -99 -83 -19 122 50 59 27 -78 -118 -67 115 -5 61 -11 19 -64 -81 46 -49 -119 -7 -120 -51 102 17 85 111 -117 63 36 19 96 -69 -62 -127 -44 47 78 44 13 -107 -98 20 -14 95 111 -118 -60 -122 69 63 105 81 74 18 -123 -83 19 18 27 -125 111 95 -35 32 7 -10 108 -116 -127 51 -32 -54 -38 -66 -82 -30 20 80 89 -16 -5 53 -53 17 40 88 43 -23 -126 -91 101 -123 101 81 -74 -116 -93 -13 -123 -79 -12 -118 -2 120 32 88 65 -92 -33 -12 -100 49 -14 5 -23 51 12 71 24 -123 -61 37 102 -92 64 -66 69 93 30 63 31 91 26 25 -107 63 -61 98 29 57 125 -45 47 119 8 10 -119 -38 -86 35 -49 35 77 -89 93 -63 -25 -109 30 42 46 -75 -83 31 -44 46 124 -29 -6 -113 27 126 50 -58 57 19 -92 74 -76 44 -26 56 78 -82 -98 -49 -36 -102 42 63 -17 114 40 47 52 110 28 -77 118 -21 42 95 19 -91 -79 6 4 122 -36 -106 -8 48 -111 107 46 14 55 -33 -93 -108 -57 43 91 90 123 -103 -71 59 -90 -45 59 -85 -109 -10 78 89 -35 -124 65 118 -56 -100 -57 104 -106 42 65 48 68 -116 121 104 -26 -46 -43 -43 -2 -92 -8 -69 -116 -120 -39 31 -65 -18 -56 -123 -45 60 -6 74 47 -7 27 -54 -71 107 11 -57 113 -63 -66 20 -72 -124 -104 16 52 -56 -59 -61 -113 13 -125 -42 -3 -122 -111 -13 -67 1 -43 -37 -42 -98 -37 -108 -7 -64 -127 68 94 18 69 49 -85 -127 -102 37 -64 114 -79 -15 -77 55 25 -17 100 -85 21 11 13 -34 33 -91 10 21 25 50 -82 63 -33 -97 -120 -69 -41 26 -49 115 -19 -68 8 -35 32 -66 -109 -76 118 -3 67 -111 121 -69 -18 34 59 -6 37 1 -61 0 75 41 24 -54 -26 113 114 -89 21 -108 -5 -103 -127 110 -23 -47 -40 5 79 25 -43 76 79 -51 -124 -36 -28 -83 104 4 71 -19 -76 -75 50 74 -52 37 -77 -106 110 -1 -64 108 -108 -70 -125 -124 -112 -40 -69 69 -31 53 -124 18 75 89 62 88 -73 0 -108 79 -42 124 95 106 33 54 -71 -1 -18 81 -8 106 -102 -5 46 41 63 -117 88 -104 -38 -38 -106 -90 -125 42 28 88 114 -9 -6 -96 75 47 -116 8 9 110 20 39 66 -72 -121 19 -77 -79 -122 111 -108 -126 38 -108 -4 98 -22 -94 14 -58 -110 84 32 21 -71 58 -48 38 -65 -115 -30 -105 -51 44 -90 68 16 42 124 62 92 -83 -8 27 90 17 -127 -117 70 69 -49 25 -109 120 -1 -80 -72 -71 39 2 -66 -31 108 -40 -16 -98 -101 -33 62 28 -82 125 81 -50 -120 23 88 -23 -44 -110 10 2 44 -120 -28 37 -24 107 -41 -115 60 -15 96 -19 -22 14 12 74 -71 109 39 -75 -62 -120 7 -23 -34 100 -78 -7 -81 101 6 79 -40 120 -108 -104 109 109 -108 84 118 -80 -53 -64 114 -16 44 -114 56 -126 40 62 -8 93 60 -64 87 15 -120 51 37 26 -64 -91 108 -39 127 -67 -124 -96 -123 113 114 -108 72 27 -119 81 -93 -22 -116 -75 -15 -65 83 -80 98 35 111 13 45 81 25 -40 43 -55 -37 -82 -29 -115 -119 -37 -1 -118 36 97 89 -82 107 119 95 40 -3 11 -99 73 74 24 -44 -126 98 38 112 115 -15 -16 67 -77 -54 45 26 -76 -24 46 -105 -73 36 -56 17 -127 -90 -45 52 69 -18 -35 -103 108 55 14 -92 -30 31 -16 41 88 -39 56 28 -61 -82 -20 -63 -109 -60 -98 126 96 -121 -10 -82 88 -71 92 123 55 -74 -119 -39 7 116 -20 -82 122 67 77 -17 -103 -69 48 8 -109 -35 -1 93 -100 -70 -39 -108 -77 -79 -42 47 -47 -119 35 -21 30 -67 -101 -114 41 -50 -87 -111 70 52 79 -62 120 89 -44 36 -108 89 -34 80 -53 -113 -76 124 105 110 50 -63 61 101 103 108 25 -111 14 89 -84 32 75 5 1 -70 42 77 -122 62 -59 -15 103 104 112 81 -72 125 -43 9 -19 86 -103 -102 -6 11 24 50 -73 -105 -21 -97 45 29 -125 -66 76 -39 -1 68 71 -51 127 -45 95 19 71 -55 51 88 71 21 -54 39 -103 43 29 -87 102 99 87 121 97 -100 40 -92 -51 -69 25 22 87 -84 -22 56 -69 -63 123 -57 40 -55 -22 -37 34 72 19 33 49 52 76 -64 8 29 -110 -38 -24 16 70 98 -110 49 9 113 89 -98 78 -82 24 45 -10 122 -89 56 75 -44 101 11 -30 39 -87 92 66 38 -56 -77 4 35 38 45 -74 75 -38 -50 -52 -114 98 20 -74 -89 114 -109 7 127 111 -93 -60 67 -48 61 28 10 102 76 115 119 -127 126 -56 -112 -19 -31 104 16 -99 -13 15 25 13 20 -72 -68 66 -38 12 104 72 117 -54 127 42 30 -90 88 27 -74 -15 -105 87 -4 13 -40 73 61 52 52 41 -44 74 -123 54 -108 -44 -10 36 44 48 93 -126 9 92 94 12 -5 -116 -90 102 94 -21 -24 100 -55 -74 70 88 -90 64 -53 -46 30 -62 38 -36 119 -32 107 -93 14 81 -10 119 -11 -48 -126 -94 -106 30 89 95 42 25 119 93 -100 -70 -12 117 -32 10 -100 -40 98 58 -100 118 -22 -84 89 -127 -22 61 -108 125 -79 -7 30 -43 -126 13 -46 -82 110 -41 0 -22 111 30 125 86 -29 -106 37 -75 90 -24 105 70 -70 116 -4 -102 -1 55 107 23 -74 53 -41 33 19 -110 70 59 -21 -102 -66 81 9 80 -112 57 9 -80 40 37 76 -21 10 -5 -89 107 81 -80 55 75 62 61 111 -11 -7 67 -105 47 -92 -77 -117 31 55 -78 35 -75 -31 -42 90 -38 30 99 118 67 79 81 -68 74 111 88 1 -91 -48 -94 38 -64 -47 -104 -113 -65 -116 -126 -10 59 -106 50 33 -98 52 -9 84 35 82 -40 87 104 -26 37 71 2 71 12 -123 86 -116 -127 -110 43 79 -90 17 -78 108 -80 16 -123 79 122 37 61 114 -4 -3 -122 -51 -30 101 46 105 -59 11 56 -68 -117 -15 -111 63 127 88 -53 -72 -55 -23 104 55 13 68 -107 40 -117 -88 -117 5 -74 -31 29 43 -41 17 50 47 89 85 52 3 45 -68 -106 -102 97 -97 34 -102 113 50 3 -123 7 64 -125 46 -49 20 -21 32 -33 79 -86 72 -10 -63 39 -17 59 80 103 -34 -28 38 72 111 20 73 -16 -52 70 -9 57 14 -8 -107 82 11 -92 -86 124 -68 106 -76 15 115 55 63 -93 -80 13 -96 -28 -86 -76 -67 29 87 -86 59 95 49 113 -93 -97 -8 -12 -76 29 -83 20 -114 95 14 65 1 -30 -117 -64 72 21 -13 -111 -104 112 3 116 -67 108 82 -50 -11 10 -1 -54 74 -57 -109 -82 -81 24 -57 103 72 61 -94 98 104 89 52 -86 -80 29 78 70 -65 55 -118 -65 54 23 -66 55 5 -4 -124 -54 21 20 89 94 -18 86 56 99 -103 -17 -116 16 20 -18 52 -95 -5 -35 -3 -27 89 -21 -121 -15 79 67 60 -9 -46 36 -29 -96 -68 21 76 -37 -90 -113 -10 90 -93 -71 46 28 -99 112 88 -126 -100 84 -13 81 -49 80 36 63 -55 -67 -83 12 96 -57 74 15 -78 -60 73 -6 -13 -44 -107 5 12 -118 -31 94 108 88 62 94 120 77 6 -83 63 49 -17 -102 -16 107 14 17 -74 83 -49 -63 118 99 -4 -120 0 116 81 3 -62 -48 33 73 -72 57 -59 -39 -90 114 14 90 -83 -89 -61 9 13 -24 15 -8 -21 -95 -37 54 -118 17 46 -118 53 -44 -33 78 77 77 1 -2 60 -126 42 72 -115 -46 -48 -29 126 -29 7 46 16 -125 69 117 -64 -118 -78 15 98 -71 -66 -76 63 -72 -46 -96 25 23 92 87 65 -89 -2 82 -102 -102 -50 -68 -78 120 -126 -74 36 90 -112 -70 -47 78 -18 32 38 53 60 32 -22 -68 101 20 74 123 31 54 46 -122 -32 49 -117 80 -71 -33 93 -74 100 114 85 -28 64 -107 -39 51 84 124 -23 80 22 67 77 111 -64 86 -75 63 -14 -4 61 -25 -20 36 -118 41 45 115 -24 -99 -106 2 -55 108 69 75 -83 76 29 -79 -85 -123 -125 108 -87 -26 -93 -124 -113 -126 40 -114 -7 -28 -118 66 30 -10 35 93 127 86 100 40 16 7 -95 24 26 123 39 -74 -19 -2 -3 70 -26 -89 75 -105 30 46 -80 -54 -74 -5 8 65 56 27 121 -35 -126 115 43 -80 27 10 118 -9 -64 -78 0 -88 74 21 -62 55 -107 51 127 63 -122 54 111 105 51 -94 29 53 107 -50 -73 95 -119 -86 98 -29 -44 -1 -67 79 -67 48 -98 95 -74 -108 65 12 55 63 49 19 -23 -32 -19 83 -98 -3 -64 -23 72 -37 -120 -41 -87 -27 -75 6 122 -1 -116 -17 -51 90 8 117 111 -7 -47 22 -55 -32 75 -27 -101 30 125 -107 -8 120 124 -22 -110 -59 103 6 -16 71 37 -23 104 55 -121 86 -45 105 106 -117 -111 -22 85 91 -98 38 75 83 118 11 -84 -52 -21 -2 -98 -121 -5 -113 -3 -106 7 18 -97 -10 -26 -113 13 -11 44 57 126 38 -88 126 -12 107 88 69 25 -94 -75 115 119 -99 -114 32 -76 42 58 -116 -32 -93 61 -25 -29 -86 10 -72 100 -16 90 -59 85 -12 -121 -63 88 19 104 -101 4 84 -108 -79 -12 119 10 -71 90 -16 72 -120 -67 115 -116 42 -21 65 -45 95 -23 -88 -47 -123 -8 22 103 2 125 -18 75 -23 -49 65 -126 -36 101 -63 -78 109 -12 -24 -126 75 -90 90 -50 67 -95 -51 10 -97 -120 70 -49 55 -84 35 -77 -31 -6 -55 16 38 -36 -14 -16 -127 28 42 -44 52 -51 -30 -85 9 -98 1 -10 29 -120 -123 -25 -20 -103 -2 -109 16 -50 3 47 -52 -52 -15 -2 80 43 -100 125 -116 -112 -104 -36 -33 -20 -57 72 -15 122 27 91 11 19 -10 24 -55 85 -87 -108 -29 -98 -82 42 83 23 121 94 -91 74 -63 36 15 43 -103 77 74 -6 74 -74 -64 94 59 30 -121 22 -75 -122 -89 37 -78 -90 -21 79 89 117 -32 96 62 -1 -116 -101 -46 126 -82 73 18 20 92 59 93 43 -35 125 -110 75 67 30 -106 61 -18 56 52 93 -21 99 59 73 41 -47 -119 -95 -23 53 15 -4 -41 -43 119 -81 -50 126 -127 53 54 59 -115 115 80 -14 68 -1 -51 -73 -96 88 91 125 -37 30 -78 -103 4 -85 -34 -32 -12 14 104 -46 -126 -82 -44 50 122 22 121 -99 -116 -119 -59 42 -24 -71 -120 94 -83 127 -34 30 -52 79 71 46 65 110 -79 96 6 83 116 -77 -17 29 -62 43 30 -80 122 1 82 -63 -109 -10 -57 42 73 9 -59 81 97 91 44 -104 -71 -95 -32 53 117 12 121 117 53 -32 -109 -61 -32 -82 72 73 58 -17 -28 61 -123 -18 59 19 16 60 -40 -101 -44 15 37 -18 93 0 -59 38 -86 21 98 57 72 38 6 -69 -21 102 46 -101 124 23 -96 -27 70 63 -95 -19 -74 -28 -27 31 60 104 -34 60 -61 19 39 -10 -45 -99 -15 -56 -103 -22 -32 -64 55 -112 55 -54 -58 -28 69 -52 82 -23 -117 -5 -56 -14 37 75 -82 127 -4 96 127 -117 -21 -127 3 116 5 25 -90 -62 59 12 -109 -52 -20 50 11 67 -27 78 -98 -16 -105 31 48 33 0 -52 80 44 103 77 118 -58 -74 -50 38 -78 68 32 -53 18 127 49 40 -101 -58 -23 99 68 30 -68 12 -43 79 -28 -101 85 1 94 90 81 115 -125 89 -66 -78 58 -66 -49 -111 -95 -79 60 113 -48 16 -117 65 125 -89 -30 7 -69 -35 16 97 55 45 -64 127 -9 63 -13 -18 54 36 -2 -101 -102 -105 -56 -54 -16 -37 -77 -106 114 27 42 -119 -9 -41 -110 40 -124 -46 -60 36 -55 119 46 -112 59 -74 -92 -32 -3 -97 117 -44 -90 6 -59 31 6 20 -59 56 -27 106 -85 -77 -79 -68 -41 -78 -29 -37 107 101 -106 103 17 75 -81 -69 -39 -117 -25 -53 60 -113 -99 -26 -27 72 50 -13 61 -96 -20 61 39 30 -92 81 -125 -96 -123 115 36 -77 -58 -127 -31 -31 95 45 27 57 125 96 -59 95 -57 75 23 84 -55 77 -1 44 -113 48 28 28 73 60 -4 19 -60 -46 -94 38 -120 -21 -43 121 -111 43 93 90 -110 -120 -93 -125 -12 -30 -47 -127 -122 87 -27 96 -73 -46 18 -107 64 84 86 -82 72 -110 -110 -20 90 94 42 22 -84 -116 -31 -90 69 -127 42 7 98 -81 -23 -106 62 -98 34 -10 51 123 3 7 -98 -125 -27 71 -1 127 26 -105 92 -34 -81 41 22 -78 -79 -38 -81 102 -4 -125 -124 -39 -47 67 -12 37 127 -86 41 -100 26 -76 -15 56 -54 -122 -29 69 -92 95 -17 -126 117 -1 -70 -119 71 82 -15 120 -59 -88 40 104 52 84 53 -96 116 46 -79 23 -86 -106 13 3 -100 -21 -54 78 -30 -18 56 26 93 -124 37 55 73 3 59 -31 54 45 107 -64 5 -29 -71 -94 -127 11 126 -64 7 -61 105 -107 39 -95 -95 -72 92 37 97 88 -53 -44 111 82 110 50 51 -84 70 -93 15 1 -8 73 -55 -57 94 88 -96 78 56 -26 -83 81 94 0 -105 -31 108 -27 115 -103 123 25 -122 38 19 74 -10 61 92 -88 -43 -90 102 104 -3 -37 112 82 -102 -100 -104 93 -32 79 -120 33 -109 47 29 -41 79 83 -51 -80 -33 -31 21 -23 93 99 27 -64 -97 -29 -69 55 45 74 -32 -123 82 85 21 40 115 -58 7 -53 -16 -86 -20 51 -77 25 -60 -35 112 70 100 -21 -113 -80 38 59 55 -24 -54 17 34 -16 93 -80 -79 -73 57 -47 -109 0 -126 10 -24 78 -78 -79 44 -28 -56 110 3 66 -109 -123 118 19 -56 -72 -106 -99 71 -100 -78 73 -73 -43 102 91 -34 -40 -91 13 -20 -92 24 -104 -101 -23 126 96 96 19 -59 124 78 -102 -9 -5 81 39 63 24 -51 122 -26 84 48 51 -59 28 118 -119 24 -5 55 97 -78 120 -99 37 -120 53 92 24 120 16 75 78 111 13 21 115 84 40 -6 -54 -44 -47 29 28 -87 -2 -31 -66 -44 -34 -70 31 60 109 -52 114 114 42 -68 58 -88 -111 -36 24 14 -91 -93 65 14 52
1 1197 12
24 -16 10 -17 -40 8 24 -33 37 40 -37 -28 20 -18 32 33 19 -38 -17 -7 20 25 -6 27 -13
384 0 127 1 0 2 0 3 127 4 0 5 0 6 0 7 127 8 127 9 0 10 127 11 127 12 127 13 0 14 0 15 127 16 127 17 127 18 127 19 127 20 127 21 127 22 127 23 127 24 0 25 0 26 0 27 0 28 0 29 127 30 0 31 0 32 0 33 127 34 0 35 127 36 0 37 127 38 0 39 127 40 127 41 0 42 127 43 127 44 127 45 0 46 0 47 0 48 0 49 127 50 127 51 0 52 127 53 0 54 0 55 127 56 0 57 127 58 0 59 0 60 127 61 0 62 127 63 0 64 0 65 127 66 0 67 127 68 127 69 127 70 127 71 127 72 0 73 127 74 127 75 127 76 0 77 0 78 0 79 127 80 127 81 0 82 127 83 127 84 127 85 0 86 127 87 127 88 127 89 0 90 127 91 127 92 127 93 127 94 0 95 0 96 127 97 0 98 0 99 0 100 0 101 127 102 127 103 0 104 127 105 0 106 0 107 127 108 0 109 0 110 127 111 127 112 0 113 127 114 127 115 0 116 0 117 0 118 127 119 0 120 127 121 127 122 127 123 0 124 0 125 127 126 127 127 127 128 0 129 0 130 0 131 127 132 0 133 127 134 127 135 0 136 127 137 0 138 0 139 0 140 0 141 0 142 0 143 0 144 0 145 127 146 0 147 0 148 127 149 0 150 0 151 0 152 0 153 0 154 127 155 127 156 127 157 127 158 127 159 127 160 0 161 0 162 0 163 0 164 0 165 127 166 127 167 127 168 127 169 0 170 0 171 0 172 0 173 0 174 127 175 0 176 0 177 127 178 127 179 127 180 127 181 127 182 0 183 0 184 127 185 127 186 0 187 127 188 0 189 127 190 127 191 0 192 127 193 127 194 127 195 127 196 127 197 0 198 0 199 0 200 0 201 0 202 0 203 127 204 127 205 127 206 127 207 0 208 127 209 0 210 127 211 0 212 127 213 127 214 0 215 127 216 0 217 0 218 0 219 127 220 127 221 127 222 0 223 127 224 127 225 0 226 127 227 0 228 127 229 0 230 127 231 0 232 127 233 127 234 127 235 127 236 127 237 0 238 127 239 127 240 0 241 127 242 0 243 0 244 0 245 0 246 0 247 127 248 0 249 127 250 0 251 127 252 127 253 0 254 0 255 0 256 127 257 0 258 0 259 127 260 0 261 127 262 0 263 127 264 0 265 0 266 127 267 0 268 127 269 0 270 0 271 0 272 127 273 127 274 0 275 127 276 0 277 0 278 0 279 0 280 0 281 0 282 0 283 127 284 0 285 127 286 0 287 0 288 0 289 127 290 0 291 0 292 0 293 127 294 127 295 127 296 0 297 127 298 0 299 127 300 0 301 0 302 0 303 127 304 127 305 0 306 127 307 0 308 0 309 127 310 127 311 127 312 0 313 0 314 127 315 0 316 127 317 127 318 0 319 127 320 127 321 0 322 127 323 127 324 127 325 0 326 127 327 0 328 127 329 127 330 0 331 0 332 127 333 127 334 0 335 0 336 0 337 127 338 127 339 127 340 127 341 0 342 127 343 0 344 0 345 127 346 0 347 127 348 127 349 127 350 127 351 127 352 127 353 127 354 0 355 127 356 127 357 0 358 127 359 0 360 127 361 127 362 0 363 0 364 127 365 0 366 0 367 0 368 0 369 127 370 0 371 127 372 127 373 0 374 127 375 0 376 127 377 127 378 127 379 127 380 127 381 127 382 0 383 0
0 30 24 7 1 3 16 16 0 1 1 0
480 -37 29 92 -21 4 74 -109 -105 58 17 5 -106 -18 36 -32 6 6 -69 -113 -110 -14 -28 67 119 -7 81 4 85 -50 96 96 29 -51 38 -82 72 -95 42 58 -119 63 -89 72 51 127 -87 -52 -116 -44 18 -27 73 -19 -86 -118 -86 -17 -110 31 -43 106 121 9 126 -6 17 126 37 61 120 103 -40 5 50 96 -86 -91 -126 82 -3 -81 -67 76 -127 50 64 -46 -77 0 77 12 109 115 19 1 -55 51 28 -78 -111 -74 -60 -74 -95 91 80 112 12 -127 -61 -103 -5 -17 25 23 -44 4 30 48 -77 121 78 -122 2 70 101 68 117 53 109 -61 -57 -100 -51 54 -26 -126 6 68 -27 95 -107 -84 -64 -69 -88 -47 6 -30 -68 122 -24 71 -18 -46 -37 -64 40 -55 -53 -32 -86 -120 94 80 -111 -27 -12 -71 -67 -41 18 -97 -89 -34 -83 -35 80 107 37 22 -68 -24 43 -65 -66 0 93 -117 -18 41 -113 -40 53 98 1 105 120 -112 65 -32 46 -102 -59 57 36 88 -127 65 29 54 -125 -53 -13 66 -11 -74 -113 -32 -27 121 82 96 13 79 -30 -102 -98 -19 78 43 -104 83 -69 -90 16 74 -30 119 100 35 -72 -123 58 70 32 -59 121 -108 17 -92 -55 -59 59 -86 111 -118 -108 -30 -65 -110 -74 -29 78 70 -14 -122 -120 63 -30 -60 -73 95 -111 19 -101 19 10 105 -62 -102 -9 -17 -44 -74 10 -30 -43 -119 -17 89 116 -126 -19 62 3 2 28 32 70 -125 -114 -125 -69 -54 34 88 -73 113 -123 -48 -99 114 124 48 -70 -19 31 69 -65 -50 16 -33 -1 87 -26 124 21 44 36 -35 56 -124 63 -120 -109 27 69 -59 21 -55 -16 88 6 40 -86 -13 -23 -25 112 -51 31 98 -60 -122 -60 77 56 -34 70 -81 -43 -42 -9 -37 -13 13 48 -17 -81 67 55 71 -2 110 109 71 -39 -52 -80 -79 20 17 -4 -83 105 -20 95 -123 67 38 -126 -6 -87 -65 9 -66 -12 -7 62 27 -26 -94 49 -23 67 109 -111 6 -123 10 -35 -62 5 2 -43 -86 -19 -43 -64 58 -106 -15 -120 38 101 -103 126 33 -33 126 85 -116 -46 -24 59 -101 22 -85 35 52 -104 -20 14 -18 -99 -19 -30 -80 -26 -108 -19 -44 21 -20 124 -90 -46 -70 -29 2 -24 -76 -103 100 86 -79 -46 -127 -2 53 -31 -20 45 -27 98 3 -3 -16 -95
5040 -12 -5 78 38 -41 16 -116 -60 -23 7 74 -43 -69 86 -85 -79 -50 -115 112 12 16 -56 91 69 109 -112 -44 97 111 35 24 79 73 -74 100 -82 119 -54 -58 127 -41 -34 -96 32 110 14 -65 -2 -44 75 46 39 45 38 74 -31 -44 -2 -112 -72 34 45 71 104 109 16 116 21 75 74 16 88 -59 31 -26 -107 19 -109 52 -22 62 -52 -115 84 -57 -97 -122 3 -106 -78 91 -114 76 23 122 89 102 -73 34 96 120 27 -58 -24 -61 3 97 14 -36 -22 -65 -23 -50 47 18 -56 114 30 -107 -41 121 33 -37 72 -9 -26 109 6 68 40 19 97 -116 -101 2 26 86 87 -16 -2 33 40 -56 -75 -86 -30 112 -109 -32 21 63 36 33 79 62 -62 -44 57 -6 -103 -36 99 -119 -15 72 -49 56 26 46 22 107 62 -46 -20 53 61 45 -7 -111 85 -97 4 -125 -78 -41 60 79 -84 -121 -71 -78 92 19 -57 -63 -110 -75 85 47 74 46 -65 -9 -30 -120 -104 -24 91 -29 100 90 92 -66 90 -104 112 13 -81 111 -36 66 -105 34 -74 -15 122 -44 -78 -36 20 -105 -33 -114 -13 118 116 115 61 -5 91 62 125 87 -110 -117 -34 -123 -49 -36 -103 -5 6 46 87 15 -63 -85 5 127 56 -30 -97 -120 97 -68 -18 -60 59 70 8 -53 -123 125 -78 7 -104 -85 -83 -67 20 -86 -74 -99 -64 -122 44 -117 122 82 57 -7 114 34 52 45 -71 19 66 72 61 36 -100 -71 36 18 50 -13 -124 74 98 -50 -69 40 -5 7 -117 -122 -111 91 -87 -98 2 50 58 4 48 92 12 -31 -99 124 0 52 66 102 19 69 -119 117 -107 -74 80 98 -9 -40 58 -40 111 109 52 60 69 -116 81 52 109 60 -84 74 19 -82 40 105 16 -43 -27 83 -37 -29 14 -7 -61 122 97 -28 -29 -55 -37 54 91 -95 43 -79 -116 -108 -9 43 -80 69 -121 -81 -4 -76 -69 -53 -8 -73 116 116 55 83 -55 25 80 -119 106 105 -124 -30 -1 -5 -48 -47 95 69 106 -77 61 -14 57 -44 50 62 -127 -113 -76 -1 83 54 39 57 108 -81 117 31 -91 43 -86 53 43 121 -32 20 121 118 71 60 -75 -20 -67 33 -115 -80 -94 54 120 122 -104 49 -6 -69 117 60 -75 77 -72 -44 102 126 -77 -9 -115 -42 -84 68 111 -53 32 -99 13 -6 34 67 -66 108 -95 -48 -25 65 91 -123 -119 -48 -81 -64 -6 -74 -103 75 75 57 51 -31 74 112 -121 108 -75 13 33 60 -41 -33 1 121 7 -119 34 -84 -41 -17 68 -84 -40 -34 58 -53 1 -83 6 -41 45 -8 89 33 -103 51 -10 -21 43 -64 -64 89 -49 127 -22 -20 41 99 -127 -2 15 -75 21 -20 -69 -41 46 76 -74 69 11 -26 100 6 118 -36 119 103 -37 -104 -14 95 -87 127 -37 97 -38 97 -45 -43 -107 -16 64 -126 -34 -115 -45 -64 24 -88 -39 -61 78 -59 110 -68 -100 -97 11 -49 64 -100 28 -87 64 17 54 91 120 115 -83 63 -23 -91 98 36 120 26 -88 -113 28 16 -91 61 52 93 48 -89 55 98 -112 45 -48 -93 -91 126 -51 -42 33 84 21 -52 -97 -4 -104 -55 40 42 -86 60 -35 65 -122 -60 110 20 40 59 48 111 112 -84 98 114 89 -123 -101 -41 79 68 39 -28 76 74 55 24 -31 -126 59 -32 45 73 9 102 -49 -29 -89 -74 -10 -85 86 72 37 -82 61 84 -42 102 -108 -89 99 -54 31 -39 -95 -5 39 44 57 55 -17 -85 -48 -42 -82 -9 38 -47 106 90 -43 53 112 29 0 -68 -113 2 -104 32 -11 30 -127 14 -58 -9 85 53 82 118 19 -112 13 93 71 91 123 -42 58 116 59 -77 111 22 35 101 -11 -39 -22 72 -53 11 105 18 104 -103 -12 -88 89 -123 -63 -72 -21 -9 87 111 -50 -75 -76 0 -112 -38 13 66 -90 69 106 31 16 -123 73 -86 -9 127 69 101 99 -85 -12 25 126 116 -64 -99 -77 73 -85 -65 73 -42 33 123 104 -1 -21 35 -33 -123 33 -31 66 37 -69 -64 97 94 50 16 -11 -47 -81 -47 -112 -58 -21 87 74 -73 56 75 -95 -48 18 71 14 -9 76 -39 16 -53 -22 -8 -9 -26 99 127 95 20 -92 -67 84 28 14 -115 76 86 1 107 -46 40 -102 -89 -60 12 -122 -56 -120 -87 111 -21 63 -2 103 3 -52 90 15 -86 73 113 0 -38 22 -118 -42 51 -54 21 -81 61 -105 -15 -23 110 39 -77 -114 58 6 -43 7 -76 -25 -69 -99 118 -89 -30 73 53 -25 -62 -87 33 -92 -28 111 -115 58 27 -23 97 -8 -23 44 -99 -21 -72 -96 -18 69 13 -85 115 -99 -79 125 10 93 -95 30 -127 20 -13 102 -43 79 -66 126 -110 98 31 -96 66 -76 42 -91 9 -4 -4 -63 39 126 49 122 -69 101 18 -23 -47 -24 -122 107 107 -90 16 -27 -34 -104 -3 -2 -30 85 -36 -99 -44 1 98 45 -22 36 -77 -64 -58 121 88 73 -52 -113 -90 -64 35 29 -99 -63 -105 79 -38 -123 -63 -33 64 -113 -7 49 0 37 -35 -125 41 83 -39 71 89 88 52 45 -56 72 109 -8 50 14 93 19 -10 -8 71 38 -109 -85 -91 94 63 125 -8 100 -82 -48 91 -28 -43 100 -25 27 31 -56 17 -21 122 46 -64 -125 -109 -34 23 -93 -65 -72 -83 123 -103 5 123 17 -119 52 -3 56 66 -31 25 85 -41 -69 -41 95 -56 -81 -102 -69 -67 -88 3 -23 -3 -80 -33 -7 -7 94 99 -19 106 -121 -65 -56 34 97 40 9 -65 102 110 92 125 -25 -107 -46 5 -56 70 21 -50 14 -79 103 41 73 -119 -87 -80 48 -65 30 65 -106 -123 18 -3 31 -15 -113 -40 -6 -42 67 121 -35 -26 -34 -2 -125 105 28 25 -48 -43 -111 55 35 -15 73 64 84 19 60 -22 -18 -127 -43 15 68 89 17 -21 -119 -10 2 96 67 55 -19 76 -112 -115 -75 -4 41 -75 55 28 -74 -125 83 27 -124 99 18 -80 -80 66 -113 -115 31 68 -32 -4 -94 -43 77 66 72 -19 42 -33 55 -117 -31 70 -98 91 4 16 -70 73 71 70 89 91 -11 77 26 60 -4 68 -19 -24 23 -37 -1 -31 -97 37 -67 0 -109 89 -77 -43 -47 -118 44 122 48 -39 -91 -97 84 -43 54 103 1 -32 18 113 107 -120 -8 95 38 13 -112 -20 -45 -13 -51 118 -113 -64 26 113 125 6 -126 -31 37 -6 43 115 52 -80 -16 94 70 -102 36 -9 -50 -61 -94 -61 90 -104 -53 43 96 66 -69 127 47 -10 112 94 18 -99 62 -23 78 48 -62 -85 110 -67 -75 18 -20 96 -69 -75 125 24 -20 -95 41 -50 79 21 30 -75 -8 52 78 120 1 109 -88 103 84 118 -53 29 12 122 -18 -80 98 25 -5 117 -15 3 -50 -10 32 26 -25 51 -3 -3 68 126 -99 110 -26 -44 70 -95 31 34 -123 5 35 58 -30 -29 -35 78 44 69 29 57 -22 74 -53 -96 -25 84 -84 -4 -80 -81 17 -44 126 30 13 -33 112 51 -123 78 45 95 -61 11 -123 14 72 -125 -76 122 -79 77 70 27 73 -66 70 -30 -12 -119 -127 87 -87 -78 -14 -57 -96 -23 40 -101 -85 26 -109 -50 -12 -92 -63 20 -18 -4 2 -101 -91 -21 79 40 -96 77 -116 -117 104 -7 4 -66 46 -6 70 98 -119 -42 111 65 -63 -113 65 -80 85 -121 122 4 72 53 -29 102 -61 -111 37 -42 12 84 109 -31 -101 9 -79 -103 -67 43 -70 -69 -101 -117 -90 36 -123 55 92 56 -116 20 -99 34 53 110 -19 94 50 41 -126 13 22 47 70 -2 -88 1 -34 64 80 -95 -96 124 57 -76 55 95 -39 -1 35 -48 117 17 -127 -98 62 32 -65 -16 79 -44 15 79 -60 -48 -13 -82 49 -62 32 5 61 -69 100 -88 120 -79 -18 113 7 -42 57 -28 -24 -72 115 13 18 4 26 106 -57 27 -36 -42 37 120 -56 -98 -94 -1 -100 112 -121 55 86 -120 121 13 29 -86 14 114 -110 18 60 -23 23 117 63 -66 61 15 34 -92 18 73 38 80 -43 -63 -98 41 -56 -66 110 106 74 84 108 -74 -64 121 -87 30 99 72 14 -41 10 -36 67 82 59 -87 80 115 91 -67 -45 29 91 -22 80 -97 -87 -32 -69 -94 -71 51 -55 -73 -41 -55 -25 112 -2 -23 -38 3 82 49 -96 -23 -44 89 42 122 31 56 38 115 -51 68 -1 36 -75 -92 -31 17 -96 56 24 44 70 -52 17 -114 70 67 89 -16 -67 91 -2 51 11 34 22 -99 126 17 97 49 114 11 -71 -94 -102 -75 67 -83 -23 -99 98 20 -108 24 -120 18 88 94 108 -73 -75 -57 122 92 13 97 -124 113 -71 54 10 -57 52 18 6 38 -111 99 -12 42 123 -19 68 -31 -112 53 -91 92 119 -4 -32 -22 -123 -97 117 111 65 62 -102 -70 35 -20 -85 -79 29 -123 81 -11 13 -63 34 26 25 82 -121 -27 -63 126 -66 -1 85 -21 82 -10 120 74 58 42 3 -27 83 101 -122 84 -41 -114 102 -82 -101 81 -81 29 -102 85 83 123 -110 29 -13 -41 124 -55 -30 -49 -38 -90 -55 34 -98 122 4 -98 1 -88 31 75 54 -116 -93 106 -70 11 111 52 -63 54 117 1 -13 -7 35 -119 -64 88 -87 94 53 -26 19 -125 104 89 67 19 -12 78 -33 111 70 57 -80 -103 105 123 54 91 -108 36 10 9 9 45 -49 -6 -8 102 -82 -71 -94 93 -116 12 -24 51 -123 42 -50 -61 -96 -39 -74 72 -60 2 -34 41 -83 -9 35 -2 -84 -82 71 -70 -32 10 -120 15 -7 -110 -109 108 -44 -30 -34 -120 33 74 65 -50 -77 76 -7 -19 49 -26 -29 21 39 -110 18 -115 1 104 46 52 19 74 117 70 -4 45 116 -88 -36 -60 90 119 -39 -34 -76 -62 -87 8 4 -28 19 12 -71 -125 -36 127 65 65 -2 -63 2 -92 112 119 -2 8 -16 0 -32 -123 -19 10 50 109 -19 99 19 -120 -104 125 -16 -43 -44 -15 123 -79 -55 -26 -68 -51 123 56 -8 49 61 -51 -23 -115 -105 23 68 -75 76 -9 -93 102 -53 5 -37 -89 102 -60 125 -121 79 106 -61 74 34 -92 -109 57 -12 -66 52 104 -76 -47 112 -123 -17 -19 -116 26 -118 -23 -126 23 124 26 -39 63 -88 89 -84 99 -86 -86 18 -91 -44 -88 38 62 47 31 103 88 -106 -16 83 -62 57 -120 70 -50 90 -34 44 14 45 -43 11 -65 83 -83 -82 -1 41 -50 75 -78 87 -18 12 -64 92 -85 72 -23 -76 58 -27 39 10 127 -31 70 78 62 -98 43 77 51 11 -25 50 -38 -65 -34 40 -3 -93 -29 -79 -67 -104 7 4 53 86 30 20 1 -107 9 93 -92 105 32 59 -104 -54 99 46 11 -3 125 94 65 109 37 -91 28 -30 -44 2 107 -4 11 -39 -52 90 117 87 95 -40 21 -75 -37 -85 120 59 -1 116 83 -16 -33 62 42 104 1 -114 104 -95 10 89 89 106 8 78 3 -103 -109 111 -39 -4 35 -98 99 -23 21 -43 -68 123 -91 -43 52 49 -25 -19 59 77 -116 -70 4 120 -45 -54 89 123 -92 90 -11 74 21 122 87 -65 -19 -109 -19 17 -29 -58 10 -11 -60 106 15 -23 68 70 114 94 39 120 70 -126 26 -58 -79 -63 56 -3 2 66 -120 -34 7 127 -60 -42 47 -50 -71 -89 -48 8 92 -77 93 10 51 43 36 -57 -77 -104 5 36 -55 25 -124 2 106 124 55 42 -118 -122 -127 -48 -56 40 95 45 -127 -27 -14 81 -65 101 -52 117 67 112 85 64 79 -25 -82 -20 30 25 -68 41 -106 -21 51 45 -16 -92 -53 -47 -105 127 66 68 93 103 67 -113 -104 -96 90 79 84 -56 -61 2 -90 -60 103 92 -11 -23 -6 54 11 -24 94 -9 5 91 -100 -124 29 -76 6 -74 44 -31 -25 0 92 -90 -22 -125 60 -10 1 -8 22 15 53 -44 -118 101 -57 -105 90 -84 -28 35 -53 55 120 108 -44 47 -67 82 -99 -27 67 108 19 -100 -123 -43 24 101 -6 67 -19 6 -83 94 56 9 -72 116 -104 -56 55 -54 44 48 -20 -125 -92 51 -109 -99 90 93 -23 11 31 15 27 73 -117 103 56 -123 -57 118 -105 -42 -86 -54 -66 17 -6 -71 14 107 3 -17 37 -124 -11 89 -15 76 106 -94 65 0 121 54 76 -47 -11 -65 100 12 2 -102 -106 0 -63 98 -54 -71 -38 77 59 -120 -17 -118 -110 81 75 105 87 40 -117 42 110 -53 47 -37 27 60 -68 -102 -66 105 59 30 97 110 127 81 -36 7 10 64 60 62 87 -48 101 -33 80 15 -18 126 -112 58 -87 -94 10 -23 -40 -66 -60 5 -127 -28 -117 114 -39 -47 -69 62 -49 -38 -58 121 103 111 56 -103 -91 121 12 22 59 87 24 -28 -93 16 -124 59 30 66 38 77 -67 78 -104 5 -123 -95 91 112 38 23 11 -111 -34 80 -35 -27 -15 -52 -9 90 -46 -104 10 -77 95 86 -81 -55 7 -90 -8 -87 41 115 -52 -23 32 68 11 16 -44 -20 -108 61 -64 99 -66 53 -31 16 101 35 -58 -52 71 109 61 -121 16 -11 16 -103 -111 -123 -127 126 77 101 27 109 2 123 -106 -65 27 102 89 25 12 -39 81 -36 112 -120 12 -121 67 -78 6 -77 118 107 -78 -65 123 -118 -87 -115 -121 -20 -121 51 -104 93 -117 41 99 -92 84 20 -44 -42 37 29 -113 0 13 -61 -86 -85 71 68 -89 43 -124 -50 24 28 -32 113 -17 -126 91 -37 -104 96 14 -53 -38 109 86 94 59 93 -110 -21 -48 -50 91 -25 24 -39 -32 -84 17 -80 33 89 10 -38 52 113 36 95 -10 -38 69 -123 92 87 0 -60 -71 -84 18 -20 -48 -126 -64 9 -35 83 76 110 -107 69 12 62 -106 -62 -3 -36 -28 107 -66 114 -117 104 -34 -98 61 -97 -110 -98 63 -9 6 -28 -113 26 -118 57 110 -87 -33 97 -40 49 -80 50 94 61 -116 -17 -62 19 -7 44 98 108 93 -29 60 -107 76 87 -101 -84 -107 119 -107 57 115 78 -43 77 120 -98 87 -32 61 1 57 26 -118 73 110 96 125 -82 -113 93 125 -30 79 42 105 -95 -121 -76 71 15 74 -97 104 40 -35 -79 2 -45 61 -28 77 -25 -85 36 50 14 -125 17 91 -117 101 -75 6 40 122 88 -106 -11 22 119 92 -58 -58 -50 80 -76 15 22 120 -89 119 -114 73 -23 38 -20 56 47 -111 14 110 18 -34 -44 -28 -70 74 -123 74 79 13 -69 98 39 51 -95 47 -44 33 85 20 -109 -124 79 73 -46 34 104 -104 102 126 85 -22 -52 -46 -90 -56 -72 -120 -52 100 -99 -60 -43 -87 100 -47 -94 -48 -14 -45 88 -24 53 -29 116 53 -25 6 98 26 102 89 105 63 -44 -1 58 99 77 -99 35 0 -62 -89 -125 51 62 102 35 11 100 -4 84 42 9 -92 65 19 17 29 71 -71 -50 122 7 -85 83 102 -60 60 -2 115 -114 7 35 -17 89 124 36 122 32 101 -43 43 107 -67 121 -119 14 -85 75 32 -94 -12 -45 -15 -101 -59 101 92 71 -81 -25 65 -5 25 114 84 -89 46 80 48 54 116 92 67 -90 7 75 75 -123 -120 1 65 -53 -6 100 89 61 -32 -25 -23 86 121 48 -113 -42 -47 126 59 41 60 -51 -30 -103 -7 74 -9 36 45 -79 -30 -125 88 -76 121 29 -17 34 -73 47 -52 72 17 22 -73 20 84 91 -69 120 55 123 -101 -124 -54 74 6 -107 -61 -118 -46 105 116 -68 45 73 -111 -54 115 -47 12 -90 48 126 42 44 19 -100 -20 -49 -114 96 32 -124 127 -84 -95 99 -42 -122 27 47 85 -81 -15 33 -106 -77 -91 0 38 -103 79 108 -67 -83 -120 14 -61 76 -70 -117 87 -70 -127 -112 41 78 36 -122 95 -121 -110 -22 18 127 110 11 11 -37 115 26 -118 8 -25 71 103 20 65 -75 -35 30 -88 -52 34 81 -51 -13 97 109 -77 -108 -16 -86 72 64 -65 86 -106 97 32 -22 55 -56 44 -124 -98 -82 117 -111 87 -88 -98 54 4 -98 12 115 92 -120 29 -28 125 105 -48 65 -27 -114 -121 -126 108 -115 9 -8 58 -114 123 94 -13 -67 -1 14 -3 52 109 -89 -58 84 70 -42 89 119 2 54 -124 31 42 -34 85 53 89 53 -100 -1 -120 27 64 -126 75 -22 110 37 28 -53 117 -55 37 101 30 -70 -124 -74 32 -33 94 -77 -104 -115 49 46 -56 -29 5 -69 31 62 -79 19 -121 81 -27 72 118 3 -78 -26 120 92 60 -97 88 -115 55 41 116 12 -48 -54 16 -120 -69 -63 -15 97 1 -62 27 58 -41 -16 -57 -115 11 -112 37 30 19 -118 -16 -16 -111 -83 106 -51 24 85 17 17 57 116 -21 -91 112 89 56 -42 11 -22 10 -31 -125 74 7 69 116 -96 -90 -2 -25 14 -68 -61 49 -84 -41 77 -32 -119 -15 125 10 -60 -86 116 43 -47 -1 78 68 5 99 -6 -89 -8 54 101 -13 -119 -74 -11 64 -104 -89 -102 -14 25 -98 -79 49 -111 -1 -66 -65 49 89 -113 -68 78 1 -108 7 -97 15 49 -86 115 119 -75 64 70 -36 -47 37 116 -24 -13 25 -50 100 68 107 99 100 22 3 70 79 97 54 -32 13 31 57 25 -65 -20 33 -21 -23 87 -46 27 -23 -117 -99 5 -16 68 32 -30 -59 -113 7 10 86 67 111 -92 17 -3 -100 60 1 8 -80 3 69 98 123 -65 -29 -106 19 19 -35 78 -90 -76 -93 87 -91 -92 33 -31 -70 50 102 -104 -24 48 -118 -19 57 -16 -53 -31 -29 112 81 78 63 2 27 88 7 67 -49 40 -114 56 12 72 -47 -119 75 117 -126 -16 -26 -22 -77 118 74 -34 38 119 26 124 84 102 98 86 105 6 -72 -120 -109 72 2 12 -110 99 -65 11 -118 104 4 84 106 -73 97 -120 125 -94 -37 -96 -123 12 -48 -20 -61 -24 -73 -35 48 44 21 0 52 94 110 68 -30 -32 -41 -88 56 25 -78 -13 -35 43 110 -85 38 102 -84 59 32 85 -45 102 -67 -82 -45 -49 82 -8 45 -51 -32 106 46 122 -72 -125 -6 -15 -51 -18 -5 -23 -107 -60 42 -33 -113 71 18 -9 -118 -70 -54 71 68 -68 122 -91 123 -26 -36 -33 51 -99 -127 117 -107 59 -8 24 -53 109 -14 -64 -13 116 14 51 2 -36 -118 16 86 37 -36 68 -45 109 -91 67 -82 76 -122 57 -54 -85 4 117 -97 -1 -28 -113 7 -7 -28 91 88 36 122 4 73 90 -40 35 -1 51 17 58 6 24 112 60 109 95 2 -64 -47 26 123 15 -114 -95 106 2 63 76 -42 -83 52 -30 -9 -56 -30 76 60 4 18 -109 -5 5 17 13 -84 110 93 98 25 -54 -105 74 48 -106 65 39 104 52 -9 -3 -81 -37 -10 -78 -46 26 14 -13 66 9 49 13 -83 -10 9 -69 -16 -76 -60 78 -50 -101 -42 -98 -115 112 26 -32 111 -126 -29 126 -55 -101 -7 67 89 45 -44 -87 -43 5 51 30 -103 23 -22 34 -11 101 -44 34 68 46 102 -37 -11 -120 -115 -103 41 -62 -120 -38 48 -72 -116 -43 -124 -86 -30 -54 101 -29 117 -34 86 -96 -97 -12 50 11 78 66 18 -19 24 -106 49 -1 125 -78 -15 19 -98 -79 -51 31 103 -29 -13 39 85 -32 -86 -58 16 -2 -38 31 111 108 37 106 84 64 72 -49 89 -59 -70 -44 -112 -15 72 -112 104 -92 -21 34 49 -72 -70 -125 9 -91 80 -83 27 -101 10 114 -22 88 -45 -5 -84 -66 11 -87 126 41 33 -121 106 42 113 58 -53 -67 -11 91 -95 57 -27 21 -11 94 -74 -109 57 5 20 75 -95 -55 -60 -2 64 -34 -113 75 40 98 61 11 -21 -68 54 35 -53 -92 -5 36 -55 66 71 -125 -37 -67 -106 62 92 -54 -97 83 -8 -1 -44 82 -94 114 20 50 -7 58 -45 -66 -84 -89 107 -3 -6 -32 26 -103 -65 -125 20 -105 -8 104 39 -99 -106 119 -46 70 87 -36 63 17 7 4 120 26 -65 2 19 -36 -62 64 -121 117 -103 -42 56 -102 99 -8 54 -125 60 -74 17 117 -79 -102 -12 103 -23 71 -52 -102 59 -6 -39 -46 95 70 -42 98 82 -89 -59 -87 73 12 93 87 -65 95 82 -83 -14 -124 -95 104 88 116 -89 -7 127 15 49 99 121 -117 -122 14 -74 -94 -4 -108 31 46 -83 -92 48 37 -94 47 -93 113 -35 -88 109 -14 84 -15 32 70 -25 -26 -126 -68 -117 -11 -24 109 -13 -52 5 93 88 -95 -42 -30 10 -23 -12 -55 3 116 58 -70 -97 79 17 20 83 -117 -90 -29 -21 -51 -116 -7 -84 119 -50 -119 60 68 72 -12 125 -91 51 -66 40 43 79 -112 -40 112 -77 -18 23 -79 53 -72 79 -113 -71 -121 115 102 -6 -54 -124 -122 -50 70 97 8 124 48 54 -79 -40 -48 84 113 61 -83 -29 -75 -15 -31 119 82 -115 -12 110 22 -61 -20 6 -67 73 38 22 -61 107 29 -100 -39 30 30 -116 -118 -126 27 14 -3 -123 -122 103 -88 31 108 -27 -19 -57 -71 -2 56 28 -37 -23 126 125 -24 -20 98 -125 -115 59 78 -92 -124 13 -77 124 16 -36 -85 -24 -30 -37 -102 -8 -14 32 2 -119 -102 -48 -82 18 -67 -52 64 -22 -105 22 92 23 -73 -127 117 90 113 -63 -27 88 2 -92 -103 -82 51 21 -110 21 90 -28 120 -82 -3 6 -63 -4 -21 112 -21 10 -113 29 114 104 14 81 32 38 103 103 16 -62 -57 56 -96 81 -59 -79 53 81 -111 126 110 -74 -60 102 35 -116 -69 28 121 -20 11 66 -7 -13 109 33 -96 101 43 -67 -48 44 103 28 97 37 79 41 -38 -84 108 120 -39 -85 -118 -103 21 92 8 -10 111 -99 98 -29 -71 34 -125 81 113 -18 86 -50 120 117 -58 65 -117 3 27 -24 45 101 85 -13 108 -127 19 -84 -6 40 117 -14 -89 -111 21 -14 5 -32 44 35 -41 73 78 -47 53 -42 -62 -3 47 -66 -54 -94 22 39 103 -43 31 -47 -13 19 -24 -22 119 -122 27 17 83 11 -24 -31 72 -121 49 -26 -16 -26 61 -76 -21 85 54 74 -4 37 -53 118 -34 -77 -105 -22 -108 8 -11 -21 95 34 -74 65 26 -118 -45 -106 -24 -107 -97 -24 -47 51 19 -99 -34 38 119 -85 -101 77 79 -44 -9 2 -97 119 -104 -115 -55 91 -6 2 20 104 -32 -45 -32 43 -75 -75 -122 49 -54 121 -80 -63 -54 53 -123 -22 45 70 -88 17 -85 15 -14 -5 92 9 -101 -96 80 -91 -43 -24 106 -121 -44 117 109 -96 123 113 -34 17 82 -98 23 -126 -37 97 124 8 29 21 -107 -64 -52 -111 -40 -54 2 -119 -98 82 3 33 120 -24 -109 57 19 -58 110 15 121 63 117 -20 -36 81 -62 -57 15 -81 19 -101 -74 33 -99 82 -66 -63 -28 -31 -17 18 11 -125 49 -101 16 -33 31 46 93 -69 -38 -119 -75 -123 38 -20 -88 62 34 -9 67 -103 127 -107 62 -27 -5 -104 44 -8 -95 47 -5 -90 10 71 36 68 -23 -121 -101 9 -70 -67 -125 -59 123 56 81 -12 -6 16 7 98 122 35 97 44 -107 3 18 -40 -97 73 81 -126 -25 47 8 -90 98 16 13 74 13 -93 105 13 -109 117 -82 -74 -23 -124 18 -4 -11 60 44 -39 -54 -115 68 12 34 -3 19 -68 -100 32 19 25 -62 15 113 54 -103 16 -74 33 63 22 -118 69 -17 -22 96 -76 -91 -121 93 76 -49 -63 -119 -44 -76 67 -81 -11 32 108 -15 -15 55 9 -66 60 -39 -22 -2 -23 29 80 35 80 76 20 33 -102 -101 -10 1 -81 -85 72 98 -80 49 -33 -98 79 25 -14 -68 -65 -80 72 -50 120 31 60 110 -36 126 4 50 0 97 108 115 35 -41 -49 -99 28 -41 -113 69 -74 -82 11 -84 -125 -102 106 -105 37 -114 -32 -60 46 13 -38 -14 -65 -85 -42 -105 8 -112 -28 -112 69 59 16 36 43 -63 -7 45 -119 -20 -80 85 -70 115 -53 96 -103 -13 -21 111 49 -13 -73 -117 18 -106 -71 -124 -85 -116 -58 87 72 7 69 -13 -117 96 18 69 -111 -57 -113 -92 10 -14 -23 41 -100 -100 -68 53 10 43 -105 85 -11 126 -69 63 60 -1 -1 7 -94 -111 -115 99 17 38 -20 -26 35 -115 -35 -112 8 47 -108 -71 87 -38 24 -100 126 -59 -4 -75 -62 -46 127 -105 84 -81 58 -104 -9 2 -15 58 32 106 -81 37 -33 91 67 -108 -74 -74 -122 115 -18 66 54 -79 1 -45 126 20 22 -59 9 86 65 -98 -77 0 -52 57 -23 -9 40 40 -107 107 52 102 -50 12 74 -64 -122 31 -75 14 -114 28 11 9 86 -126 37 27 123 -37 -119 -32 1 -124 -124 -7 80 -48 -30 63 -2 107 29 -79 -124 27 27 99 100 -20 126 -20 46 -53 -58 103 105 -126 -99 121 -89 96 -91 -60 -71 -1 29 -113 -115 -24 80 103 91 28 1 -83 -29 112 -117 29 -53 89 1 8 -56 31 94 88 -94 2 -74 -53 82 112 -66 45 38 -75 -93 5 -45 -92 14 62 77 45 0 68 100 77
24 1857 13 1427 12 475 11 507 11 759 11 625 13 1087 17 549 12 759 11 547 11 1523 13 923 15 1505 13 513 15 1299 14 1415 14 785 12 1277 12 1559 15 1165 12 839 12 281 10 1807 18 1543 12
24 -29 10 -37 -22 7 -3 -9 -36 -25 1 -11 -14 -7 34 10 39 4 28 -12 -12 -25 36 35 38
384 0 0 1 127 2 127 3 127 4 0 5 0 6 0 7 127 8 127 9 127 10 127 11 0 12 127 13 0 14 0 15 0 16 127 17 127 18 127 19 127 20 0 21 127 22 0 23 127 24 0 25 127 26 127 27 127 28 127 29 127 30 127 31 0 32 0 33 127 34 127 35 127 36 127 37 127 38 127 39 127 40 127 41 0 42 0 43 0 44 127 45 127 46 127 47 127 48 127 49 127 50 0 51 127 52 127 53 0 54 127 55 0 56 0 57 0 58 127 59 0 60 127 61 0 62 127 63 127 64 127 65 0 66 0 67 0 68 127 69 127 70 0 71 127 72 0 73 127 74 127 75 0 76 127 77 0 78 0 79 0 80 0 81 0 82 127 83 127 84 127 85 127 86 127 87 7 88 0 89 0 90 127 91 127 92 127 93 127 94 0 95 0 96 0 97 127 98 127 99 7 100 0 101 0 102 118 103 0 104 0 105 127 106 0 107 46 108 0 109 0 110 127 111 127 112 127 113 0 114 127 115 0 116 0 117 0 118 127 119 127 120 0 121 127 122 0 123 0 124 127 125 0 126 0 127 0 128 127 129 127 130 0 131 0 132 0 133 0 134 127 135 127 136 127 137 127 138 127 139 0 140 0 141 0 142 0 143 0 144 127 145 0 146 127 147 0 148 0 149 0 150 0 151 127 152 127 153 0 154 0 155 0 156 0 157 127 158 127 159 0 160 127 161 127 162 127 163 0 164 0 165 127 166 127 167 127 168 0 169 0 170 0 171 0 172 0 173 127 174 0 175 127 176 0 177 127 178 127 179 0 180 126 181 127 182 0 183 0 184 127 185 127 186 0 187 0 188 0 189 127 190 0 191 127 192 0 193 0 194 127 195 0 196 127 197 127 198 0 199 127 200 0 201 127 202 127 203 0 204 127 205 0 206 127 207 0 208 0 209 0 210 127 211 0 212 0 213 0 214 0 215 4 216 0 217 127 218 127 219 11 220 127 221 127 222 0 223 0 224 0 225 127 226 127 227 127 228 127 229 0 230 0 231 0 232 0 233 127 234 0 235 127 236 0 237 0 238 0 239 0 240 0 241 0 242 127 243 0 244 127 245 0 246 0 247 0 248 127 249 127 250 0 251 0 252 0 253 0 254 127 255 127 256 127 257 127 258 127 259 127 260 127 261 0 262 0 263 127 264 0 265 127 266 0 267 0 268 127 269 127 270 127 271 127 272 0 273 0 274 0 275 0 276 0 277 127 278 0 279 0 280 0 281 0 282 127 283 127 284 127 285 127 286 127 287 127 288 0 289 127 290 127 291 127 292 127 293 0 294 127 295 127 296 127 297 127 298 121 299 0 300 0 301 127 302 127 303 127 304 0 305 127 306 0 307 127 308 127 309 127 310 0 311 127 312 127 313 0 314 127 315 0 316 0 317 127 318 0 319 127 320 127 321 127 322 0 323 127 324 127 325 127 326 127 327 127 328 127 329 0 330 0 331 0 332 127 333 0 334 0 335 127 336 0 337 127 338 127 339 0 340 0 341 127 342 127 343 0 344 127 345 127 346 127 347 127 348 127 349 0 350 0 351 127 352 127 353 0 354 127 355 127 356 0 357 0 358 0 359 0 360 66 361 0 362 0 363 127 364 0 365 127 366 106 367 0 368 0 369 0 370 0 371 127 372 0 373 127 374 127 375 127 376 0 377 0 378 127 379 127 380 127 381 127 382 0 383 127
2 12 16 1 1 0 1 1 0 0 0 0
12 15 73 -88 -52 32 87 26 -12 -36 -33 62 38
192 -12 70 -35 63 -93 56 96 -18 19 81 101 109 73 -117 -69 -102 91 27 -7 -82 56 29 11 -97 2 -53 -38 25 29 -96 125 -37 -68 77 -55 10 -65 -17 -6 -114 50 98 -104 -108 71 -43 11 -102 -34 120 -104 59 53 -66 -6 -125 -43 -43 -118 -5 -19 -95 50 -43 47 -124 12 28 -122 5 -115 95 -56 108 -26 -96 15 5 12 -76 62 58 127 38 23 17 126 99 115 49 125 41 -34 45 63 -12 105 -89 -100 64 9 -58 17 -108 -12 75 2 -60 83 -83 78 -104 126 56 115 -113 -5 -88 36 47 60 49 12 -8 -24 122 11 -104 83 -31 90 66 71 -115 -25 -76 42 -41 -6 125 19 -113 126 -97 54 37 33 -36 35 44 -90 120 -90 -73 -10 81 41 -108 -7 35 -41 50 115 -20 -94 110 10 62 44 -57 19 26 14 124 -3 102 -31 -9 -36 -38 114 30 108 -94 70 86 -77 -64 -57 -67 3 -5
1 201 9
16 -22 20 -3 -29 17 -24 37 25 -7 25 -24 35 -16 -31 -35 40
16 0 127 1 -127 2 127 3 -127 4 -127 5 127 6 127 7 127 8 127 9 127 10 127 11 127 12 -127 13 127 14 127 15 127
2 12 16 1 1 0 1 1 0 0 1 0
12 -118 -48 -56 59 -4 127 -67 -11 5 32 -76 84
192 -34 97 126 -99 -62 -61 92 -27 -67 -69 -17 -45 -40 -20 -92 58 61 -68 -91 119 117 -7 44 -4 -23 38 -110 84 -96 35 -56 69 -30 36 -33 75 31 -45 75 -111 85 90 -35 -42 93 -106 118 -103 -73 -19 121 69 60 82 -110 96 -73 -81 -19 57 45 -67 -125 -101 -18 -50 47 -75 -89 26 52 -105 76 -124 116 92 2 -96 18 42 86 -75 93 109 -116 69 -112 -101 93 100 101 106 16 -49 75 -50 4 -53 102 -35 93 98 -79 52 -79 120 43 -19 11 -108 -5 126 26 -90 79 -31 -35 -84 -121 77 62 -30 -124 -32 -96 -63 79 -104 -92 -87 50 -80 114 56 0 58 -9 -86 -23 -36 30 -57 -49 -78 -109 -57 91 -80 60 110 25 93 97 -114 -23 127 58 -79 35 -61 124 -36 13 -25 45 30 89 -67 -79 16 81 -17 11 -11 13 -65 22 -100 -20 100 -121 -73 -36 -103 -125 -37 -38 50 119 21 93 60
16 535 12 1043 12 271 10 801 11 741 11 1869 13 1325 12 1747 13 1057 12 899 12 1551 13 1761 15 1357 12 185 12 1357 13 177 12
16 -10 16 1 29 -4 11 21 -37 -38 32 -36 -10 7 2 -9 -21
16 0 -127 1 -127 2 127 3 127 4 -127 5 127 6 -127 7 -127 8 127 9 -127 10 127 11 127 12 127 13 127 14 127 15 -127
2 12 16 1 1 0 1 1 0 1 0 0
12 99 -8 -7 63 -127 70 15 120 80 -57 84 -114
192 -121 123 -56 82 -8 -111 -81 -39 8 25 -24 66 -111 -127 4 62 88 16 -17 46 -79 42 52 -105 28 120 -122 -64 3 -90 -123 101 -51 87 65 -59 -94 -112 113 -53 59 57 17 -10 19 -1 -83 -113 14 -21 -86 58 -9 -46 -6 -100 22 84 66 -29 1 -75 -23 100 -92 -43 36 -44 -7 101 58 119 -125 60 106 89 -42 -109 -36 68 87 -24 -94 68 77 52 37 89 -2 -66 97 -33 -101 -94 104 75 126 -76 -82 -25 9 -46 -44 119 -87 108 37 77 -74 -18 -32 78 117 -65 100 108 99 120 101 32 -3 78 -93 72 -8 80 99 58 -107 -60 23 -49 98 32 46 -53 -12 117 110 98 -98 116 28 -64 126 -106 65 -81 -64 -68 12 -101 -64 94 42 28 -123 66 48 64 -17 37 -85 -100 37 120 -12 -88 -84 31 52 47 64 31 28 110 38 96 -63 -40 -54 -120 -65 85 35 -83 102 -1 -11 23 -40 -58
1 1009 14
16 -1 -20 -3 -3 16 25 -37 -37 3 12 35 -33 39 -16 3 -12
16 0 46 1 0 2 0 3 127 4 127 5 127 6 127 7 0 8 127 9 127 10 0 11 127 12 0 13 127 14 127 15 127
2 12 16 1 1 0 1 1 0 1 1 0
12 -45 59 106 3 13 114 -58 -109 20 -104 -90 -44
192 6 75 40 -34 105 -2 72 -68 -83 -79 83 -29 84 -25 -84 -121 118 -93 -3 122 -52 15 74 33 95 125 121 70 -81 -124 75 84 -85 92 -120 24 -59 48 27 -1 7 96 27 -6 98 -66 32 -6 -39 -107 -35 118 70 104 -121 -104 86 54 38 -89 -57 66 10 15 20 76 17 17 76 -41 -109 -24 85 -50 -106 22 50 -14 11 80 -93 -47 21 52 -123 3 -98 106 20 93 -46 -59 125 21 -33 31 -123 -101 -102 -87 37 -83 -111 -2 -33 -118 -4 -29 112 123 104 -9 -59 -48 95 -101 72 -70 111 -69 80 73 -117 -90 -95 -106 125 9 29 -117 70 35 106 76 -30 -127 91 72 -85 96 116 -112 -85 -32 -42 44 81 102 -35 -10 16 59 66 85 -62 9 67 19 58 23 110 -105 -56 -89 56 -79 80 28 -42 39 -110 112 63 -74 85 105 -45 7 -25 51 -43 -33 127 -26 38 94 77 -115 78 23 -79 -39
16 1501 12 361 10 1101 12 1551 13 715 12 347 10 203 10 1469 13 83 8 1351 12 333 11 779 11 941 14 323 11 1419 13 1285 13
16 -36 -3 -14 -33 36 -1 -2 7 39 3 -16 -9 -22 -6 32 34
16 0 0 1 127 2 0 3 127 4 0 5 127 6 0 7 127 8 127 9 127 10 127 11 127 12 127 13 0 14 0 15 127
7 16 5 1 1 0 1 1 0 0 0 0
16 -20 -111 -110 -24 -80 54 -14 -60 54 56 -118 14 122 -46 -125 -8
80 -112 112 42 33 -56 75 -60 71 -12 23 -125 -45 -114 -96 67 -39 76 70 14 -119 -33 44 -77 -42 49 -114 -30 -58 106 -110 -63 -15 -23 19 -126 -94 -91 -60 -74 98 105 -43 85 -90 34 66 -69 60 112 -76 74 -91 -119 -110 -76 -61 127 -43 -40 75 84 40 -70 126 -101 70 24 -10 -116 -95 -102 5 73 92 58 -58 -50 -104 105 -107
1 63 8
5 33 32 20 -39 28
5 0 127 1 127 2 127 3 127 4 -127
7 16 5 1 1 0 1 1 0 0 1 0
16 -100 -21 101 -9 76 -14 -106 -25 -68 127 -14 48 -116 33 2 96
80 -8 -69 -2 -60 64 -44 116 105 117 125 88 30 6 -37 30 -50 33 -87 2 -91 -15 -73 -86 -79 -94 1 58 35 -71 -88 -114 112 109 54 -94 99 -106 76 7 1 91 -51 -69 89 73 93 -58 71 9 -74 116 -117 10 -107 -28 22 -40 -116 -77 8 -34 73 -26 20 -18 32 -105 47 -75 7 -6 -42 123 84 119 -5 108 -81 119 -51
5 189 9 855 15 1597 13 1827 15 1119 12
5 13 -27 29 37 -31
5 0 127 1 -127 2 -127 3 -127 4 -127
7 16 5 1 1 0 1 1 0 1 0 0
16 19 34 100 28 -44 53 -64 5 68 91 82 -68 45 -103 -118 -118
80 97 -61 38 37 101 48 -39 78 -68 -21 55 100 126 37 -108 76 102 127 17 -57 -49 6 7 -93 16 -22 27 -114 -113 -28 112 44 -27 107 -61 -39 -33 33 91 -16 -103 -63 7 -14 -102 88 -101 -93 -110 90 -122 -109 -101 -41 8 -122 78 -49 -97 99 76 -70 55 -38 15 -96 -51 -114 49 -32 87 -60 41 -46 -38 -114 18 -97 -113 -44
1 75 9
5 30 -13 -22 15 18
5 0 127 1 0 2 127 3 0 4 0
7 16 5 1 1 0 1 1 0 1 1 0
16 -3 -8 93 75 -1 89 1 76 36 68 86 -42 96 28 82 -112
80 90 122 -102 61 -28 -80 39 118 -81 -115 -95 -66 -61 124 -86 -91 66 -98 87 18 5 -49 -119 -119 63 121 -46 -93 51 -30 84 -51 -62 -100 78 -112 35 18 -117 97 13 107 62 -15 -57 49 -90 16 -32 -107 -15 -2 -90 -117 17 85 2 48 -125 -60 -35 -55 112 65 -109 23 -45 -112 -56 -8 -20 -83 -120 -59 91 -72 100 66 52 83
5 1125 14 1603 14 793 12 1331 12 1103 12
5 19 -26 11 -17 1
5 0 0 1 0 2 0 3 127 4 0
2 12 10 1 1 0 64 64 0 0 0 0
768 18 55 76 -28 -76 80 -36 35 -32 -117 116 -7 -78 5 -59 -112 -102 -112 67 78 115 -60 -106 86 100 -54 7 104 -21 65 -26 71 -100 106 13 7 104 70 -126 -122 103 39 64 32 110 35 -3 -120 70 -26 63 12 78 -87 32 -73 69 101 -116 -106 32 54 -7 -68 -26 -34 -56 -53 50 88 93 102 98 1 93 -119 -8 -82 -32 90 -104 64 -78 27 120 2 -87 -35 -97 0 45 -2 -103 1 37 -111 45 43 -38 -60 -96 -87 122 -84 -51 -67 1 31 -117 127 58 -24 9 -96 54 -32 124 36 -91 -83 -39 24 6 -37 -20 -32 -127 54 37 121 -85 75 -8 -79 -117 115 38 -49 54 82 42 -82 -84 73 -91 100 93 -125 -70 -74 13 107 -110 -107 52 -10 -6 117 7 37 68 -100 20 40 -106 17 -31 -18 20 59 -80 40 -90 -78 21 57 -29 14 74 -74 -125 30 19 -11 -11 -31 85 -37 98 42 68 70 32 -29 -105 -79 9 125 73 96 -112 -47 -106 -102 -45 35 -36 87 -62 -83 -111 46 37 -34 -118 29 45 20 -18 54 76 106 -67 -18 -82 58 -39 -62 67 13 98 52 19 19 29 19 -82 3 -86 -64 -121 -71 -69 86 72 77 94 14 -77 -15 -93 -38 -26 -23 80 -123 21 -99 73 9 -109 3 -62 -56 -121 -89 -8 -52 123 63 -13 -125 -103 -92 -110 17 93 -74 -107 -118 127 -113 -100 -117 -69 -116 -11 36 -109 -14 67 -62 64 -100 -56 119 -87 -93 114 -32 49 122 -28 -119 -126 -35 -73 15 -3 72 7 -9 -56 47 112 50 -77 -101 -89 101 34 -105 -48 -51 106 6 90 -17 -8 18 -2 -78 -51 -29 7 25 -35 73 124 47 9 4 -97 -68 -10 -18 -21 105 2 27 -53 -58 6 -56 39 -68 83 -126 -49 -78 52 -47 -41 0 76 -63 -79 74 19 120 -70 48 108 -83 -20 111 16 -48 -116 -104 48 95 7 -123 -71 -35 -20 123 -77 -109 -30 -82 22 37 -95 90 2 94 80 127 -76 -56 89 5 -20 69 44 -3 -16 54 103 -76 68 -107 74 -115 79 16 -46 23 -44 -124 83 52 -6 99 -27 31 -55 28 -65 122 42 -6 52 105 27 27 -87 -71 27 87 29 -34 101 15 -81 -105 95 62 -44 14 10 -40 -29 -21 23 123 -10 -35 -121 123 -105 -110 79 -13 40 80 -57 -77 60 100 94 8 100 -5 107 29 14 -3 2 38 -52 6 58 -75 -16 -109 26 116 31 -72 -10 55 109 107 -118 -70 -96 106 49 92 -35 -44 -57 21 35 -24 -45 -76 -8 122 -88 -104 121 -76 61 11 -74 -9 96 73 -68 -64 -86 10 81 -17 -107 -70 -80 -11 -104 -67 33 -41 33 -57 82 7 -120 44 -93 63 68 67 -123 -81 -109 94 109 28 -113 -67 -36 -11 65 59 -23 126 48 -2 -56 -80 101 58 82 -49 -7 65 -15 -1 94 30 -78 -48 16 6 17 12 37 36 -86 32 -74 -82 -56 -96 -16 -37 21 100 -7 -16 67 23 122 68 45 20 14 -101 -23 -56 30 -82 -27 -112 56 -123 -60 3 -42 -82 41 -48 21 99 37 -11 98 28 93 63 84 112 -39 -42 15 9 -21 96 31 89 -25 -106 70 -82 53 -88 54 -64 110 -99 59 15 7 46 -48 -64 -111 -6 -1 -125 57 -52 127 -86 -123 -1 9 105 113 111 -100 -89 -25 -51 27 -69 52 -5 -33 17 -25 -48 3 -117 -117 -125 -35 -97 -80 59 44 113 42 123 -58 70 -126 102 77 -60 -119 -20 122 -21 -127 -111 96 -19 8 -57 -77 42 -65 -49 115 92 -99 -109 -33 -24 8 -114 -39 -68 -54 43 -30 -126 -9 22 -46 59 -95 -103 55 -121 97 -31 107 7 42 -95 33 56 56 -53 -127 -33 -50 25 35 27 74 -11 -80 103 -96 -57 27 51 7 -91 10 82 -4 -51 86 -121 -99 16 -67 -17 24 34
120 84 112 -122 70 25 19 49 23 111 -124 -23 8 85 -55 95 -115 97 -27 -92 53 19 71 -8 -83 50 57 29 104 125 29 -114 56 91 -114 -69 11 106 117 126 -21 -29 99 35 -87 -48 3 -22 13 -83 57 35 98 -61 -84 103 57 -79 96 69 56 -38 -37 116 18 -116 -89 98 26 -103 65 -111 -88 -6 -86 -12 -19 -33 -67 -24 121 -37 -24 122 97 21 15 -47 69 120 73 15 -5 89 78 -91 122 29 -19 -6 74 -73 -73 -65 -41 34 -76 127 -46 -67 -109 13 74 -50 104 -40 -11 -53 -113 80 29
1 799 12
10 -1 -17 -30 19 4 12 5 3 -27 40
