L 256 128 1 16 7 2 3 0 1792
0 0 0 0 -3 1 1 0
0 0 1 0 -2 1 0 0
0 0 2 0 -1 1 0 0
0 0 3 0 0 0 0 0
0 0 4 0 1 0 0 0
0 0 5 0 2 0 0 0
0 0 6 0 3 0 0 1
0 8 0 0 -3 1 1 0
0 8 1 0 -2 1 0 0
0 8 2 0 -1 1 0 0
0 8 3 0 0 0 0 0
0 8 4 0 1 0 0 0
0 8 5 0 2 0 0 0
0 8 6 0 3 0 0 1
1 0 0 0 -1 1 1 0
1 0 1 0 0 0 0 0
1 0 2 0 1 0 0 0
1 0 3 0 2 0 0 0
1 0 4 0 3 0 0 0
1 0 5 0 4 0 0 0
1 0 6 0 5 0 0 1
1 8 0 0 -1 1 1 0
1 8 1 0 0 0 0 0
1 8 2 0 1 0 0 0
1 8 3 0 2 0 0 0
1 8 4 0 3 0 0 0
1 8 5 0 4 0 0 0
1 8 6 0 5 0 0 1
2 0 0 0 1 0 1 0
2 0 1 0 2 0 0 0
2 0 2 0 3 0 0 0
2 0 3 0 4 0 0 0
2 0 4 0 5 0 0 0
2 0 5 0 6 0 0 0
2 0 6 0 7 0 0 1
2 8 0 0 1 0 1 0
2 8 1 0 2 0 0 0
2 8 2 0 3 0 0 0
2 8 3 0 4 0 0 0
2 8 4 0 5 0 0 0
2 8 5 0 6 0 0 0
2 8 6 0 7 0 0 1
3 0 0 0 3 0 1 0
3 0 1 0 4 0 0 0
3 0 2 0 5 0 0 0
3 0 3 0 6 0 0 0
3 0 4 0 7 0 0 0
3 0 5 0 8 0 0 0
3 0 6 0 9 0 0 1
3 8 0 0 3 0 1 0
3 8 1 0 4 0 0 0
3 8 2 0 5 0 0 0
3 8 3 0 6 0 0 0
3 8 4 0 7 0 0 0
3 8 5 0 8 0 0 0
3 8 6 0 9 0 0 1
4 0 0 0 5 0 1 0
4 0 1 0 6 0 0 0
4 0 2 0 7 0 0 0
4 0 3 0 8 0 0 0
4 0 4 0 9 0 0 0
4 0 5 0 10 0 0 0
4 0 6 0 11 0 0 1
4 8 0 0 5 0 1 0
4 8 1 0 6 0 0 0
4 8 2 0 7 0 0 0
4 8 3 0 8 0 0 0
4 8 4 0 9 0 0 0
4 8 5 0 10 0 0 0
4 8 6 0 11 0 0 1
5 0 0 0 7 0 1 0
5 0 1 0 8 0 0 0
5 0 2 0 9 0 0 0
5 0 3 0 10 0 0 0
5 0 4 0 11 0 0 0
5 0 5 0 12 0 0 0
5 0 6 0 13 0 0 1
5 8 0 0 7 0 1 0
5 8 1 0 8 0 0 0
5 8 2 0 9 0 0 0
5 8 3 0 10 0 0 0
5 8 4 0 11 0 0 0
5 8 5 0 12 0 0 0
5 8 6 0 13 0 0 1
6 0 0 0 9 0 1 0
6 0 1 0 10 0 0 0
6 0 2 0 11 0 0 0
6 0 3 0 12 0 0 0
6 0 4 0 13 0 0 0
6 0 5 0 14 0 0 0
6 0 6 0 15 0 0 1
6 8 0 0 9 0 1 0
6 8 1 0 10 0 0 0
6 8 2 0 11 0 0 0
6 8 3 0 12 0 0 0
6 8 4 0 13 0 0 0
6 8 5 0 14 0 0 0
6 8 6 0 15 0 0 1
7 0 0 0 11 0 1 0
7 0 1 0 12 0 0 0
7 0 2 0 13 0 0 0
7 0 3 0 14 0 0 0
7 0 4 0 15 0 0 0
7 0 5 0 16 0 0 0
7 0 6 0 17 0 0 1
7 8 0 0 11 0 1 0
7 8 1 0 12 0 0 0
7 8 2 0 13 0 0 0
7 8 3 0 14 0 0 0
7 8 4 0 15 0 0 0
7 8 5 0 16 0 0 0
7 8 6 0 17 0 0 1
8 0 0 0 13 0 1 0
8 0 1 0 14 0 0 0
8 0 2 0 15 0 0 0
8 0 3 0 16 0 0 0
8 0 4 0 17 0 0 0
8 0 5 0 18 0 0 0
8 0 6 0 19 0 0 1
8 8 0 0 13 0 1 0
8 8 1 0 14 0 0 0
8 8 2 0 15 0 0 0
8 8 3 0 16 0 0 0
8 8 4 0 17 0 0 0
8 8 5 0 18 0 0 0
8 8 6 0 19 0 0 1
9 0 0 0 15 0 1 0
9 0 1 0 16 0 0 0
9 0 2 0 17 0 0 0
9 0 3 0 18 0 0 0
9 0 4 0 19 0 0 0
9 0 5 0 20 0 0 0
9 0 6 0 21 0 0 1
9 8 0 0 15 0 1 0
9 8 1 0 16 0 0 0
9 8 2 0 17 0 0 0
9 8 3 0 18 0 0 0
9 8 4 0 19 0 0 0
9 8 5 0 20 0 0 0
9 8 6 0 21 0 0 1
10 0 0 0 17 0 1 0
10 0 1 0 18 0 0 0
10 0 2 0 19 0 0 0
10 0 3 0 20 0 0 0
10 0 4 0 21 0 0 0
10 0 5 0 22 0 0 0
10 0 6 0 23 0 0 1
10 8 0 0 17 0 1 0
10 8 1 0 18 0 0 0
10 8 2 0 19 0 0 0
10 8 3 0 20 0 0 0
10 8 4 0 21 0 0 0
10 8 5 0 22 0 0 0
10 8 6 0 23 0 0 1
11 0 0 0 19 0 1 0
11 0 1 0 20 0 0 0
11 0 2 0 21 0 0 0
11 0 3 0 22 0 0 0
11 0 4 0 23 0 0 0
11 0 5 0 24 0 0 0
11 0 6 0 25 0 0 1
11 8 0 0 19 0 1 0
11 8 1 0 20 0 0 0
11 8 2 0 21 0 0 0
11 8 3 0 22 0 0 0
11 8 4 0 23 0 0 0
11 8 5 0 24 0 0 0
11 8 6 0 25 0 0 1
12 0 0 0 21 0 1 0
12 0 1 0 22 0 0 0
12 0 2 0 23 0 0 0
12 0 3 0 24 0 0 0
12 0 4 0 25 0 0 0
12 0 5 0 26 0 0 0
12 0 6 0 27 0 0 1
12 8 0 0 21 0 1 0
12 8 1 0 22 0 0 0
12 8 2 0 23 0 0 0
12 8 3 0 24 0 0 0
12 8 4 0 25 0 0 0
12 8 5 0 26 0 0 0
12 8 6 0 27 0 0 1
13 0 0 0 23 0 1 0
13 0 1 0 24 0 0 0
13 0 2 0 25 0 0 0
13 0 3 0 26 0 0 0
13 0 4 0 27 0 0 0
13 0 5 0 28 0 0 0
13 0 6 0 29 0 0 1
13 8 0 0 23 0 1 0
13 8 1 0 24 0 0 0
13 8 2 0 25 0 0 0
13 8 3 0 26 0 0 0
13 8 4 0 27 0 0 0
13 8 5 0 28 0 0 0
13 8 6 0 29 0 0 1
14 0 0 0 25 0 1 0
14 0 1 0 26 0 0 0
14 0 2 0 27 0 0 0
14 0 3 0 28 0 0 0
14 0 4 0 29 0 0 0
14 0 5 0 30 0 0 0
14 0 6 0 31 0 0 1
14 8 0 0 25 0 1 0
14 8 1 0 26 0 0 0
14 8 2 0 27 0 0 0
14 8 3 0 28 0 0 0
14 8 4 0 29 0 0 0
14 8 5 0 30 0 0 0
14 8 6 0 31 0 0 1
15 0 0 0 27 0 1 0
15 0 1 0 28 0 0 0
15 0 2 0 29 0 0 0
15 0 3 0 30 0 0 0
15 0 4 0 31 0 0 0
15 0 5 0 32 0 0 0
15 0 6 0 33 0 0 1
15 8 0 0 27 0 1 0
15 8 1 0 28 0 0 0
15 8 2 0 29 0 0 0
15 8 3 0 30 0 0 0
15 8 4 0 31 0 0 0
15 8 5 0 32 0 0 0
15 8 6 0 33 0 0 1
16 0 0 0 29 0 1 0
16 0 1 0 30 0 0 0
16 0 2 0 31 0 0 0
16 0 3 0 32 0 0 0
16 0 4 0 33 0 0 0
16 0 5 0 34 0 0 0
16 0 6 0 35 0 0 1
16 8 0 0 29 0 1 0
16 8 1 0 30 0 0 0
16 8 2 0 31 0 0 0
16 8 3 0 32 0 0 0
16 8 4 0 33 0 0 0
16 8 5 0 34 0 0 0
16 8 6 0 35 0 0 1
17 0 0 0 31 0 1 0
17 0 1 0 32 0 0 0
17 0 2 0 33 0 0 0
17 0 3 0 34 0 0 0
17 0 4 0 35 0 0 0
17 0 5 0 36 0 0 0
17 0 6 0 37 0 0 1
17 8 0 0 31 0 1 0
17 8 1 0 32 0 0 0
17 8 2 0 33 0 0 0
17 8 3 0 34 0 0 0
17 8 4 0 35 0 0 0
17 8 5 0 36 0 0 0
17 8 6 0 37 0 0 1
18 0 0 0 33 0 1 0
18 0 1 0 34 0 0 0
18 0 2 0 35 0 0 0
18 0 3 0 36 0 0 0
18 0 4 0 37 0 0 0
18 0 5 0 38 0 0 0
18 0 6 0 39 0 0 1
18 8 0 0 33 0 1 0
18 8 1 0 34 0 0 0
18 8 2 0 35 0 0 0
18 8 3 0 36 0 0 0
18 8 4 0 37 0 0 0
18 8 5 0 38 0 0 0
18 8 6 0 39 0 0 1
19 0 0 0 35 0 1 0
19 0 1 0 36 0 0 0
19 0 2 0 37 0 0 0
19 0 3 0 38 0 0 0
19 0 4 0 39 0 0 0
19 0 5 0 40 0 0 0
19 0 6 0 41 0 0 1
19 8 0 0 35 0 1 0
19 8 1 0 36 0 0 0
19 8 2 0 37 0 0 0
19 8 3 0 38 0 0 0
19 8 4 0 39 0 0 0
19 8 5 0 40 0 0 0
19 8 6 0 41 0 0 1
20 0 0 0 37 0 1 0
20 0 1 0 38 0 0 0
20 0 2 0 39 0 0 0
20 0 3 0 40 0 0 0
20 0 4 0 41 0 0 0
20 0 5 0 42 0 0 0
20 0 6 0 43 0 0 1
20 8 0 0 37 0 1 0
20 8 1 0 38 0 0 0
20 8 2 0 39 0 0 0
20 8 3 0 40 0 0 0
20 8 4 0 41 0 0 0
20 8 5 0 42 0 0 0
20 8 6 0 43 0 0 1
21 0 0 0 39 0 1 0
21 0 1 0 40 0 0 0
21 0 2 0 41 0 0 0
21 0 3 0 42 0 0 0
21 0 4 0 43 0 0 0
21 0 5 0 44 0 0 0
21 0 6 0 45 0 0 1
21 8 0 0 39 0 1 0
21 8 1 0 40 0 0 0
21 8 2 0 41 0 0 0
21 8 3 0 42 0 0 0
21 8 4 0 43 0 0 0
21 8 5 0 44 0 0 0
21 8 6 0 45 0 0 1
22 0 0 0 41 0 1 0
22 0 1 0 42 0 0 0
22 0 2 0 43 0 0 0
22 0 3 0 44 0 0 0
22 0 4 0 45 0 0 0
22 0 5 0 46 0 0 0
22 0 6 0 47 0 0 1
22 8 0 0 41 0 1 0
22 8 1 0 42 0 0 0
22 8 2 0 43 0 0 0
22 8 3 0 44 0 0 0
22 8 4 0 45 0 0 0
22 8 5 0 46 0 0 0
22 8 6 0 47 0 0 1
23 0 0 0 43 0 1 0
23 0 1 0 44 0 0 0
23 0 2 0 45 0 0 0
23 0 3 0 46 0 0 0
23 0 4 0 47 0 0 0
23 0 5 0 48 0 0 0
23 0 6 0 49 0 0 1
23 8 0 0 43 0 1 0
23 8 1 0 44 0 0 0
23 8 2 0 45 0 0 0
23 8 3 0 46 0 0 0
23 8 4 0 47 0 0 0
23 8 5 0 48 0 0 0
23 8 6 0 49 0 0 1
24 0 0 0 45 0 1 0
24 0 1 0 46 0 0 0
24 0 2 0 47 0 0 0
24 0 3 0 48 0 0 0
24 0 4 0 49 0 0 0
24 0 5 0 50 0 0 0
24 0 6 0 51 0 0 1
24 8 0 0 45 0 1 0
24 8 1 0 46 0 0 0
24 8 2 0 47 0 0 0
24 8 3 0 48 0 0 0
24 8 4 0 49 0 0 0
24 8 5 0 50 0 0 0
24 8 6 0 51 0 0 1
25 0 0 0 47 0 1 0
25 0 1 0 48 0 0 0
25 0 2 0 49 0 0 0
25 0 3 0 50 0 0 0
25 0 4 0 51 0 0 0
25 0 5 0 52 0 0 0
25 0 6 0 53 0 0 1
25 8 0 0 47 0 1 0
25 8 1 0 48 0 0 0
25 8 2 0 49 0 0 0
25 8 3 0 50 0 0 0
25 8 4 0 51 0 0 0
25 8 5 0 52 0 0 0
25 8 6 0 53 0 0 1
26 0 0 0 49 0 1 0
26 0 1 0 50 0 0 0
26 0 2 0 51 0 0 0
26 0 3 0 52 0 0 0
26 0 4 0 53 0 0 0
26 0 5 0 54 0 0 0
26 0 6 0 55 0 0 1
26 8 0 0 49 0 1 0
26 8 1 0 50 0 0 0
26 8 2 0 51 0 0 0
26 8 3 0 52 0 0 0
26 8 4 0 53 0 0 0
26 8 5 0 54 0 0 0
26 8 6 0 55 0 0 1
27 0 0 0 51 0 1 0
27 0 1 0 52 0 0 0
27 0 2 0 53 0 0 0
27 0 3 0 54 0 0 0
27 0 4 0 55 0 0 0
27 0 5 0 56 0 0 0
27 0 6 0 57 0 0 1
27 8 0 0 51 0 1 0
27 8 1 0 52 0 0 0
27 8 2 0 53 0 0 0
27 8 3 0 54 0 0 0
27 8 4 0 55 0 0 0
27 8 5 0 56 0 0 0
27 8 6 0 57 0 0 1
28 0 0 0 53 0 1 0
28 0 1 0 54 0 0 0
28 0 2 0 55 0 0 0
28 0 3 0 56 0 0 0
28 0 4 0 57 0 0 0
28 0 5 0 58 0 0 0
28 0 6 0 59 0 0 1
28 8 0 0 53 0 1 0
28 8 1 0 54 0 0 0
28 8 2 0 55 0 0 0
28 8 3 0 56 0 0 0
28 8 4 0 57 0 0 0
28 8 5 0 58 0 0 0
28 8 6 0 59 0 0 1
29 0 0 0 55 0 1 0
29 0 1 0 56 0 0 0
29 0 2 0 57 0 0 0
29 0 3 0 58 0 0 0
29 0 4 0 59 0 0 0
29 0 5 0 60 0 0 0
29 0 6 0 61 0 0 1
29 8 0 0 55 0 1 0
29 8 1 0 56 0 0 0
29 8 2 0 57 0 0 0
29 8 3 0 58 0 0 0
29 8 4 0 59 0 0 0
29 8 5 0 60 0 0 0
29 8 6 0 61 0 0 1
30 0 0 0 57 0 1 0
30 0 1 0 58 0 0 0
30 0 2 0 59 0 0 0
30 0 3 0 60 0 0 0
30 0 4 0 61 0 0 0
30 0 5 0 62 0 0 0
30 0 6 0 63 0 0 1
30 8 0 0 57 0 1 0
30 8 1 0 58 0 0 0
30 8 2 0 59 0 0 0
30 8 3 0 60 0 0 0
30 8 4 0 61 0 0 0
30 8 5 0 62 0 0 0
30 8 6 0 63 0 0 1
31 0 0 0 59 0 1 0
31 0 1 0 60 0 0 0
31 0 2 0 61 0 0 0
31 0 3 0 62 0 0 0
31 0 4 0 63 0 0 0
31 0 5 0 64 0 0 0
31 0 6 0 65 0 0 1
31 8 0 0 59 0 1 0
31 8 1 0 60 0 0 0
31 8 2 0 61 0 0 0
31 8 3 0 62 0 0 0
31 8 4 0 63 0 0 0
31 8 5 0 64 0 0 0
31 8 6 0 65 0 0 1
32 0 0 0 61 0 1 0
32 0 1 0 62 0 0 0
32 0 2 0 63 0 0 0
32 0 3 0 64 0 0 0
32 0 4 0 65 0 0 0
32 0 5 0 66 0 0 0
32 0 6 0 67 0 0 1
32 8 0 0 61 0 1 0
32 8 1 0 62 0 0 0
32 8 2 0 63 0 0 0
32 8 3 0 64 0 0 0
32 8 4 0 65 0 0 0
32 8 5 0 66 0 0 0
32 8 6 0 67 0 0 1
33 0 0 0 63 0 1 0
33 0 1 0 64 0 0 0
33 0 2 0 65 0 0 0
33 0 3 0 66 0 0 0
33 0 4 0 67 0 0 0
33 0 5 0 68 0 0 0
33 0 6 0 69 0 0 1
33 8 0 0 63 0 1 0
33 8 1 0 64 0 0 0
33 8 2 0 65 0 0 0
33 8 3 0 66 0 0 0
33 8 4 0 67 0 0 0
33 8 5 0 68 0 0 0
33 8 6 0 69 0 0 1
34 0 0 0 65 0 1 0
34 0 1 0 66 0 0 0
34 0 2 0 67 0 0 0
34 0 3 0 68 0 0 0
34 0 4 0 69 0 0 0
34 0 5 0 70 0 0 0
34 0 6 0 71 0 0 1
34 8 0 0 65 0 1 0
34 8 1 0 66 0 0 0
34 8 2 0 67 0 0 0
34 8 3 0 68 0 0 0
34 8 4 0 69 0 0 0
34 8 5 0 70 0 0 0
34 8 6 0 71 0 0 1
35 0 0 0 67 0 1 0
35 0 1 0 68 0 0 0
35 0 2 0 69 0 0 0
35 0 3 0 70 0 0 0
35 0 4 0 71 0 0 0
35 0 5 0 72 0 0 0
35 0 6 0 73 0 0 1
35 8 0 0 67 0 1 0
35 8 1 0 68 0 0 0
35 8 2 0 69 0 0 0
35 8 3 0 70 0 0 0
35 8 4 0 71 0 0 0
35 8 5 0 72 0 0 0
35 8 6 0 73 0 0 1
36 0 0 0 69 0 1 0
36 0 1 0 70 0 0 0
36 0 2 0 71 0 0 0
36 0 3 0 72 0 0 0
36 0 4 0 73 0 0 0
36 0 5 0 74 0 0 0
36 0 6 0 75 0 0 1
36 8 0 0 69 0 1 0
36 8 1 0 70 0 0 0
36 8 2 0 71 0 0 0
36 8 3 0 72 0 0 0
36 8 4 0 73 0 0 0
36 8 5 0 74 0 0 0
36 8 6 0 75 0 0 1
37 0 0 0 71 0 1 0
37 0 1 0 72 0 0 0
37 0 2 0 73 0 0 0
37 0 3 0 74 0 0 0
37 0 4 0 75 0 0 0
37 0 5 0 76 0 0 0
37 0 6 0 77 0 0 1
37 8 0 0 71 0 1 0
37 8 1 0 72 0 0 0
37 8 2 0 73 0 0 0
37 8 3 0 74 0 0 0
37 8 4 0 75 0 0 0
37 8 5 0 76 0 0 0
37 8 6 0 77 0 0 1
38 0 0 0 73 0 1 0
38 0 1 0 74 0 0 0
38 0 2 0 75 0 0 0
38 0 3 0 76 0 0 0
38 0 4 0 77 0 0 0
38 0 5 0 78 0 0 0
38 0 6 0 79 0 0 1
38 8 0 0 73 0 1 0
38 8 1 0 74 0 0 0
38 8 2 0 75 0 0 0
38 8 3 0 76 0 0 0
38 8 4 0 77 0 0 0
38 8 5 0 78 0 0 0
38 8 6 0 79 0 0 1
39 0 0 0 75 0 1 0
39 0 1 0 76 0 0 0
39 0 2 0 77 0 0 0
39 0 3 0 78 0 0 0
39 0 4 0 79 0 0 0
39 0 5 0 80 0 0 0
39 0 6 0 81 0 0 1
39 8 0 0 75 0 1 0
39 8 1 0 76 0 0 0
39 8 2 0 77 0 0 0
39 8 3 0 78 0 0 0
39 8 4 0 79 0 0 0
39 8 5 0 80 0 0 0
39 8 6 0 81 0 0 1
40 0 0 0 77 0 1 0
40 0 1 0 78 0 0 0
40 0 2 0 79 0 0 0
40 0 3 0 80 0 0 0
40 0 4 0 81 0 0 0
40 0 5 0 82 0 0 0
40 0 6 0 83 0 0 1
40 8 0 0 77 0 1 0
40 8 1 0 78 0 0 0
40 8 2 0 79 0 0 0
40 8 3 0 80 0 0 0
40 8 4 0 81 0 0 0
40 8 5 0 82 0 0 0
40 8 6 0 83 0 0 1
41 0 0 0 79 0 1 0
41 0 1 0 80 0 0 0
41 0 2 0 81 0 0 0
41 0 3 0 82 0 0 0
41 0 4 0 83 0 0 0
41 0 5 0 84 0 0 0
41 0 6 0 85 0 0 1
41 8 0 0 79 0 1 0
41 8 1 0 80 0 0 0
41 8 2 0 81 0 0 0
41 8 3 0 82 0 0 0
41 8 4 0 83 0 0 0
41 8 5 0 84 0 0 0
41 8 6 0 85 0 0 1
42 0 0 0 81 0 1 0
42 0 1 0 82 0 0 0
42 0 2 0 83 0 0 0
42 0 3 0 84 0 0 0
42 0 4 0 85 0 0 0
42 0 5 0 86 0 0 0
42 0 6 0 87 0 0 1
42 8 0 0 81 0 1 0
42 8 1 0 82 0 0 0
42 8 2 0 83 0 0 0
42 8 3 0 84 0 0 0
42 8 4 0 85 0 0 0
42 8 5 0 86 0 0 0
42 8 6 0 87 0 0 1
43 0 0 0 83 0 1 0
43 0 1 0 84 0 0 0
43 0 2 0 85 0 0 0
43 0 3 0 86 0 0 0
43 0 4 0 87 0 0 0
43 0 5 0 88 0 0 0
43 0 6 0 89 0 0 1
43 8 0 0 83 0 1 0
43 8 1 0 84 0 0 0
43 8 2 0 85 0 0 0
43 8 3 0 86 0 0 0
43 8 4 0 87 0 0 0
43 8 5 0 88 0 0 0
43 8 6 0 89 0 0 1
44 0 0 0 85 0 1 0
44 0 1 0 86 0 0 0
44 0 2 0 87 0 0 0
44 0 3 0 88 0 0 0
44 0 4 0 89 0 0 0
44 0 5 0 90 0 0 0
44 0 6 0 91 0 0 1
44 8 0 0 85 0 1 0
44 8 1 0 86 0 0 0
44 8 2 0 87 0 0 0
44 8 3 0 88 0 0 0
44 8 4 0 89 0 0 0
44 8 5 0 90 0 0 0
44 8 6 0 91 0 0 1
45 0 0 0 87 0 1 0
45 0 1 0 88 0 0 0
45 0 2 0 89 0 0 0
45 0 3 0 90 0 0 0
45 0 4 0 91 0 0 0
45 0 5 0 92 0 0 0
45 0 6 0 93 0 0 1
45 8 0 0 87 0 1 0
45 8 1 0 88 0 0 0
45 8 2 0 89 0 0 0
45 8 3 0 90 0 0 0
45 8 4 0 91 0 0 0
45 8 5 0 92 0 0 0
45 8 6 0 93 0 0 1
46 0 0 0 89 0 1 0
46 0 1 0 90 0 0 0
46 0 2 0 91 0 0 0
46 0 3 0 92 0 0 0
46 0 4 0 93 0 0 0
46 0 5 0 94 0 0 0
46 0 6 0 95 0 0 1
46 8 0 0 89 0 1 0
46 8 1 0 90 0 0 0
46 8 2 0 91 0 0 0
46 8 3 0 92 0 0 0
46 8 4 0 93 0 0 0
46 8 5 0 94 0 0 0
46 8 6 0 95 0 0 1
47 0 0 0 91 0 1 0
47 0 1 0 92 0 0 0
47 0 2 0 93 0 0 0
47 0 3 0 94 0 0 0
47 0 4 0 95 0 0 0
47 0 5 0 96 0 0 0
47 0 6 0 97 0 0 1
47 8 0 0 91 0 1 0
47 8 1 0 92 0 0 0
47 8 2 0 93 0 0 0
47 8 3 0 94 0 0 0
47 8 4 0 95 0 0 0
47 8 5 0 96 0 0 0
47 8 6 0 97 0 0 1
48 0 0 0 93 0 1 0
48 0 1 0 94 0 0 0
48 0 2 0 95 0 0 0
48 0 3 0 96 0 0 0
48 0 4 0 97 0 0 0
48 0 5 0 98 0 0 0
48 0 6 0 99 0 0 1
48 8 0 0 93 0 1 0
48 8 1 0 94 0 0 0
48 8 2 0 95 0 0 0
48 8 3 0 96 0 0 0
48 8 4 0 97 0 0 0
48 8 5 0 98 0 0 0
48 8 6 0 99 0 0 1
49 0 0 0 95 0 1 0
49 0 1 0 96 0 0 0
49 0 2 0 97 0 0 0
49 0 3 0 98 0 0 0
49 0 4 0 99 0 0 0
49 0 5 0 100 0 0 0
49 0 6 0 101 0 0 1
49 8 0 0 95 0 1 0
49 8 1 0 96 0 0 0
49 8 2 0 97 0 0 0
49 8 3 0 98 0 0 0
49 8 4 0 99 0 0 0
49 8 5 0 100 0 0 0
49 8 6 0 101 0 0 1
50 0 0 0 97 0 1 0
50 0 1 0 98 0 0 0
50 0 2 0 99 0 0 0
50 0 3 0 100 0 0 0
50 0 4 0 101 0 0 0
50 0 5 0 102 0 0 0
50 0 6 0 103 0 0 1
50 8 0 0 97 0 1 0
50 8 1 0 98 0 0 0
50 8 2 0 99 0 0 0
50 8 3 0 100 0 0 0
50 8 4 0 101 0 0 0
50 8 5 0 102 0 0 0
50 8 6 0 103 0 0 1
51 0 0 0 99 0 1 0
51 0 1 0 100 0 0 0
51 0 2 0 101 0 0 0
51 0 3 0 102 0 0 0
51 0 4 0 103 0 0 0
51 0 5 0 104 0 0 0
51 0 6 0 105 0 0 1
51 8 0 0 99 0 1 0
51 8 1 0 100 0 0 0
51 8 2 0 101 0 0 0
51 8 3 0 102 0 0 0
51 8 4 0 103 0 0 0
51 8 5 0 104 0 0 0
51 8 6 0 105 0 0 1
52 0 0 0 101 0 1 0
52 0 1 0 102 0 0 0
52 0 2 0 103 0 0 0
52 0 3 0 104 0 0 0
52 0 4 0 105 0 0 0
52 0 5 0 106 0 0 0
52 0 6 0 107 0 0 1
52 8 0 0 101 0 1 0
52 8 1 0 102 0 0 0
52 8 2 0 103 0 0 0
52 8 3 0 104 0 0 0
52 8 4 0 105 0 0 0
52 8 5 0 106 0 0 0
52 8 6 0 107 0 0 1
53 0 0 0 103 0 1 0
53 0 1 0 104 0 0 0
53 0 2 0 105 0 0 0
53 0 3 0 106 0 0 0
53 0 4 0 107 0 0 0
53 0 5 0 108 0 0 0
53 0 6 0 109 0 0 1
53 8 0 0 103 0 1 0
53 8 1 0 104 0 0 0
53 8 2 0 105 0 0 0
53 8 3 0 106 0 0 0
53 8 4 0 107 0 0 0
53 8 5 0 108 0 0 0
53 8 6 0 109 0 0 1
54 0 0 0 105 0 1 0
54 0 1 0 106 0 0 0
54 0 2 0 107 0 0 0
54 0 3 0 108 0 0 0
54 0 4 0 109 0 0 0
54 0 5 0 110 0 0 0
54 0 6 0 111 0 0 1
54 8 0 0 105 0 1 0
54 8 1 0 106 0 0 0
54 8 2 0 107 0 0 0
54 8 3 0 108 0 0 0
54 8 4 0 109 0 0 0
54 8 5 0 110 0 0 0
54 8 6 0 111 0 0 1
55 0 0 0 107 0 1 0
55 0 1 0 108 0 0 0
55 0 2 0 109 0 0 0
55 0 3 0 110 0 0 0
55 0 4 0 111 0 0 0
55 0 5 0 112 0 0 0
55 0 6 0 113 0 0 1
55 8 0 0 107 0 1 0
55 8 1 0 108 0 0 0
55 8 2 0 109 0 0 0
55 8 3 0 110 0 0 0
55 8 4 0 111 0 0 0
55 8 5 0 112 0 0 0
55 8 6 0 113 0 0 1
56 0 0 0 109 0 1 0
56 0 1 0 110 0 0 0
56 0 2 0 111 0 0 0
56 0 3 0 112 0 0 0
56 0 4 0 113 0 0 0
56 0 5 0 114 0 0 0
56 0 6 0 115 0 0 1
56 8 0 0 109 0 1 0
56 8 1 0 110 0 0 0
56 8 2 0 111 0 0 0
56 8 3 0 112 0 0 0
56 8 4 0 113 0 0 0
56 8 5 0 114 0 0 0
56 8 6 0 115 0 0 1
57 0 0 0 111 0 1 0
57 0 1 0 112 0 0 0
57 0 2 0 113 0 0 0
57 0 3 0 114 0 0 0
57 0 4 0 115 0 0 0
57 0 5 0 116 0 0 0
57 0 6 0 117 0 0 1
57 8 0 0 111 0 1 0
57 8 1 0 112 0 0 0
57 8 2 0 113 0 0 0
57 8 3 0 114 0 0 0
57 8 4 0 115 0 0 0
57 8 5 0 116 0 0 0
57 8 6 0 117 0 0 1
58 0 0 0 113 0 1 0
58 0 1 0 114 0 0 0
58 0 2 0 115 0 0 0
58 0 3 0 116 0 0 0
58 0 4 0 117 0 0 0
58 0 5 0 118 0 0 0
58 0 6 0 119 0 0 1
58 8 0 0 113 0 1 0
58 8 1 0 114 0 0 0
58 8 2 0 115 0 0 0
58 8 3 0 116 0 0 0
58 8 4 0 117 0 0 0
58 8 5 0 118 0 0 0
58 8 6 0 119 0 0 1
59 0 0 0 115 0 1 0
59 0 1 0 116 0 0 0
59 0 2 0 117 0 0 0
59 0 3 0 118 0 0 0
59 0 4 0 119 0 0 0
59 0 5 0 120 0 0 0
59 0 6 0 121 0 0 1
59 8 0 0 115 0 1 0
59 8 1 0 116 0 0 0
59 8 2 0 117 0 0 0
59 8 3 0 118 0 0 0
59 8 4 0 119 0 0 0
59 8 5 0 120 0 0 0
59 8 6 0 121 0 0 1
60 0 0 0 117 0 1 0
60 0 1 0 118 0 0 0
60 0 2 0 119 0 0 0
60 0 3 0 120 0 0 0
60 0 4 0 121 0 0 0
60 0 5 0 122 0 0 0
60 0 6 0 123 0 0 1
60 8 0 0 117 0 1 0
60 8 1 0 118 0 0 0
60 8 2 0 119 0 0 0
60 8 3 0 120 0 0 0
60 8 4 0 121 0 0 0
60 8 5 0 122 0 0 0
60 8 6 0 123 0 0 1
61 0 0 0 119 0 1 0
61 0 1 0 120 0 0 0
61 0 2 0 121 0 0 0
61 0 3 0 122 0 0 0
61 0 4 0 123 0 0 0
61 0 5 0 124 0 0 0
61 0 6 0 125 0 0 1
61 8 0 0 119 0 1 0
61 8 1 0 120 0 0 0
61 8 2 0 121 0 0 0
61 8 3 0 122 0 0 0
61 8 4 0 123 0 0 0
61 8 5 0 124 0 0 0
61 8 6 0 125 0 0 1
62 0 0 0 121 0 1 0
62 0 1 0 122 0 0 0
62 0 2 0 123 0 0 0
62 0 3 0 124 0 0 0
62 0 4 0 125 0 0 0
62 0 5 0 126 0 0 0
62 0 6 0 127 0 0 1
62 8 0 0 121 0 1 0
62 8 1 0 122 0 0 0
62 8 2 0 123 0 0 0
62 8 3 0 124 0 0 0
62 8 4 0 125 0 0 0
62 8 5 0 126 0 0 0
62 8 6 0 127 0 0 1
63 0 0 0 123 0 1 0
63 0 1 0 124 0 0 0
63 0 2 0 125 0 0 0
63 0 3 0 126 0 0 0
63 0 4 0 127 0 0 0
63 0 5 0 128 0 0 0
63 0 6 0 129 0 0 1
63 8 0 0 123 0 1 0
63 8 1 0 124 0 0 0
63 8 2 0 125 0 0 0
63 8 3 0 126 0 0 0
63 8 4 0 127 0 0 0
63 8 5 0 128 0 0 0
63 8 6 0 129 0 0 1
64 0 0 0 125 0 1 0
64 0 1 0 126 0 0 0
64 0 2 0 127 0 0 0
64 0 3 0 128 0 0 0
64 0 4 0 129 0 0 0
64 0 5 0 130 0 0 0
64 0 6 0 131 0 0 1
64 8 0 0 125 0 1 0
64 8 1 0 126 0 0 0
64 8 2 0 127 0 0 0
64 8 3 0 128 0 0 0
64 8 4 0 129 0 0 0
64 8 5 0 130 0 0 0
64 8 6 0 131 0 0 1
65 0 0 0 127 0 1 0
65 0 1 0 128 0 0 0
65 0 2 0 129 0 0 0
65 0 3 0 130 0 0 0
65 0 4 0 131 0 0 0
65 0 5 0 132 0 0 0
65 0 6 0 133 0 0 1
65 8 0 0 127 0 1 0
65 8 1 0 128 0 0 0
65 8 2 0 129 0 0 0
65 8 3 0 130 0 0 0
65 8 4 0 131 0 0 0
65 8 5 0 132 0 0 0
65 8 6 0 133 0 0 1
66 0 0 0 129 0 1 0
66 0 1 0 130 0 0 0
66 0 2 0 131 0 0 0
66 0 3 0 132 0 0 0
66 0 4 0 133 0 0 0
66 0 5 0 134 0 0 0
66 0 6 0 135 0 0 1
66 8 0 0 129 0 1 0
66 8 1 0 130 0 0 0
66 8 2 0 131 0 0 0
66 8 3 0 132 0 0 0
66 8 4 0 133 0 0 0
66 8 5 0 134 0 0 0
66 8 6 0 135 0 0 1
67 0 0 0 131 0 1 0
67 0 1 0 132 0 0 0
67 0 2 0 133 0 0 0
67 0 3 0 134 0 0 0
67 0 4 0 135 0 0 0
67 0 5 0 136 0 0 0
67 0 6 0 137 0 0 1
67 8 0 0 131 0 1 0
67 8 1 0 132 0 0 0
67 8 2 0 133 0 0 0
67 8 3 0 134 0 0 0
67 8 4 0 135 0 0 0
67 8 5 0 136 0 0 0
67 8 6 0 137 0 0 1
68 0 0 0 133 0 1 0
68 0 1 0 134 0 0 0
68 0 2 0 135 0 0 0
68 0 3 0 136 0 0 0
68 0 4 0 137 0 0 0
68 0 5 0 138 0 0 0
68 0 6 0 139 0 0 1
68 8 0 0 133 0 1 0
68 8 1 0 134 0 0 0
68 8 2 0 135 0 0 0
68 8 3 0 136 0 0 0
68 8 4 0 137 0 0 0
68 8 5 0 138 0 0 0
68 8 6 0 139 0 0 1
69 0 0 0 135 0 1 0
69 0 1 0 136 0 0 0
69 0 2 0 137 0 0 0
69 0 3 0 138 0 0 0
69 0 4 0 139 0 0 0
69 0 5 0 140 0 0 0
69 0 6 0 141 0 0 1
69 8 0 0 135 0 1 0
69 8 1 0 136 0 0 0
69 8 2 0 137 0 0 0
69 8 3 0 138 0 0 0
69 8 4 0 139 0 0 0
69 8 5 0 140 0 0 0
69 8 6 0 141 0 0 1
70 0 0 0 137 0 1 0
70 0 1 0 138 0 0 0
70 0 2 0 139 0 0 0
70 0 3 0 140 0 0 0
70 0 4 0 141 0 0 0
70 0 5 0 142 0 0 0
70 0 6 0 143 0 0 1
70 8 0 0 137 0 1 0
70 8 1 0 138 0 0 0
70 8 2 0 139 0 0 0
70 8 3 0 140 0 0 0
70 8 4 0 141 0 0 0
70 8 5 0 142 0 0 0
70 8 6 0 143 0 0 1
71 0 0 0 139 0 1 0
71 0 1 0 140 0 0 0
71 0 2 0 141 0 0 0
71 0 3 0 142 0 0 0
71 0 4 0 143 0 0 0
71 0 5 0 144 0 0 0
71 0 6 0 145 0 0 1
71 8 0 0 139 0 1 0
71 8 1 0 140 0 0 0
71 8 2 0 141 0 0 0
71 8 3 0 142 0 0 0
71 8 4 0 143 0 0 0
71 8 5 0 144 0 0 0
71 8 6 0 145 0 0 1
72 0 0 0 141 0 1 0
72 0 1 0 142 0 0 0
72 0 2 0 143 0 0 0
72 0 3 0 144 0 0 0
72 0 4 0 145 0 0 0
72 0 5 0 146 0 0 0
72 0 6 0 147 0 0 1
72 8 0 0 141 0 1 0
72 8 1 0 142 0 0 0
72 8 2 0 143 0 0 0
72 8 3 0 144 0 0 0
72 8 4 0 145 0 0 0
72 8 5 0 146 0 0 0
72 8 6 0 147 0 0 1
73 0 0 0 143 0 1 0
73 0 1 0 144 0 0 0
73 0 2 0 145 0 0 0
73 0 3 0 146 0 0 0
73 0 4 0 147 0 0 0
73 0 5 0 148 0 0 0
73 0 6 0 149 0 0 1
73 8 0 0 143 0 1 0
73 8 1 0 144 0 0 0
73 8 2 0 145 0 0 0
73 8 3 0 146 0 0 0
73 8 4 0 147 0 0 0
73 8 5 0 148 0 0 0
73 8 6 0 149 0 0 1
74 0 0 0 145 0 1 0
74 0 1 0 146 0 0 0
74 0 2 0 147 0 0 0
74 0 3 0 148 0 0 0
74 0 4 0 149 0 0 0
74 0 5 0 150 0 0 0
74 0 6 0 151 0 0 1
74 8 0 0 145 0 1 0
74 8 1 0 146 0 0 0
74 8 2 0 147 0 0 0
74 8 3 0 148 0 0 0
74 8 4 0 149 0 0 0
74 8 5 0 150 0 0 0
74 8 6 0 151 0 0 1
75 0 0 0 147 0 1 0
75 0 1 0 148 0 0 0
75 0 2 0 149 0 0 0
75 0 3 0 150 0 0 0
75 0 4 0 151 0 0 0
75 0 5 0 152 0 0 0
75 0 6 0 153 0 0 1
75 8 0 0 147 0 1 0
75 8 1 0 148 0 0 0
75 8 2 0 149 0 0 0
75 8 3 0 150 0 0 0
75 8 4 0 151 0 0 0
75 8 5 0 152 0 0 0
75 8 6 0 153 0 0 1
76 0 0 0 149 0 1 0
76 0 1 0 150 0 0 0
76 0 2 0 151 0 0 0
76 0 3 0 152 0 0 0
76 0 4 0 153 0 0 0
76 0 5 0 154 0 0 0
76 0 6 0 155 0 0 1
76 8 0 0 149 0 1 0
76 8 1 0 150 0 0 0
76 8 2 0 151 0 0 0
76 8 3 0 152 0 0 0
76 8 4 0 153 0 0 0
76 8 5 0 154 0 0 0
76 8 6 0 155 0 0 1
77 0 0 0 151 0 1 0
77 0 1 0 152 0 0 0
77 0 2 0 153 0 0 0
77 0 3 0 154 0 0 0
77 0 4 0 155 0 0 0
77 0 5 0 156 0 0 0
77 0 6 0 157 0 0 1
77 8 0 0 151 0 1 0
77 8 1 0 152 0 0 0
77 8 2 0 153 0 0 0
77 8 3 0 154 0 0 0
77 8 4 0 155 0 0 0
77 8 5 0 156 0 0 0
77 8 6 0 157 0 0 1
78 0 0 0 153 0 1 0
78 0 1 0 154 0 0 0
78 0 2 0 155 0 0 0
78 0 3 0 156 0 0 0
78 0 4 0 157 0 0 0
78 0 5 0 158 0 0 0
78 0 6 0 159 0 0 1
78 8 0 0 153 0 1 0
78 8 1 0 154 0 0 0
78 8 2 0 155 0 0 0
78 8 3 0 156 0 0 0
78 8 4 0 157 0 0 0
78 8 5 0 158 0 0 0
78 8 6 0 159 0 0 1
79 0 0 0 155 0 1 0
79 0 1 0 156 0 0 0
79 0 2 0 157 0 0 0
79 0 3 0 158 0 0 0
79 0 4 0 159 0 0 0
79 0 5 0 160 0 0 0
79 0 6 0 161 0 0 1
79 8 0 0 155 0 1 0
79 8 1 0 156 0 0 0
79 8 2 0 157 0 0 0
79 8 3 0 158 0 0 0
79 8 4 0 159 0 0 0
79 8 5 0 160 0 0 0
79 8 6 0 161 0 0 1
80 0 0 0 157 0 1 0
80 0 1 0 158 0 0 0
80 0 2 0 159 0 0 0
80 0 3 0 160 0 0 0
80 0 4 0 161 0 0 0
80 0 5 0 162 0 0 0
80 0 6 0 163 0 0 1
80 8 0 0 157 0 1 0
80 8 1 0 158 0 0 0
80 8 2 0 159 0 0 0
80 8 3 0 160 0 0 0
80 8 4 0 161 0 0 0
80 8 5 0 162 0 0 0
80 8 6 0 163 0 0 1
81 0 0 0 159 0 1 0
81 0 1 0 160 0 0 0
81 0 2 0 161 0 0 0
81 0 3 0 162 0 0 0
81 0 4 0 163 0 0 0
81 0 5 0 164 0 0 0
81 0 6 0 165 0 0 1
81 8 0 0 159 0 1 0
81 8 1 0 160 0 0 0
81 8 2 0 161 0 0 0
81 8 3 0 162 0 0 0
81 8 4 0 163 0 0 0
81 8 5 0 164 0 0 0
81 8 6 0 165 0 0 1
82 0 0 0 161 0 1 0
82 0 1 0 162 0 0 0
82 0 2 0 163 0 0 0
82 0 3 0 164 0 0 0
82 0 4 0 165 0 0 0
82 0 5 0 166 0 0 0
82 0 6 0 167 0 0 1
82 8 0 0 161 0 1 0
82 8 1 0 162 0 0 0
82 8 2 0 163 0 0 0
82 8 3 0 164 0 0 0
82 8 4 0 165 0 0 0
82 8 5 0 166 0 0 0
82 8 6 0 167 0 0 1
83 0 0 0 163 0 1 0
83 0 1 0 164 0 0 0
83 0 2 0 165 0 0 0
83 0 3 0 166 0 0 0
83 0 4 0 167 0 0 0
83 0 5 0 168 0 0 0
83 0 6 0 169 0 0 1
83 8 0 0 163 0 1 0
83 8 1 0 164 0 0 0
83 8 2 0 165 0 0 0
83 8 3 0 166 0 0 0
83 8 4 0 167 0 0 0
83 8 5 0 168 0 0 0
83 8 6 0 169 0 0 1
84 0 0 0 165 0 1 0
84 0 1 0 166 0 0 0
84 0 2 0 167 0 0 0
84 0 3 0 168 0 0 0
84 0 4 0 169 0 0 0
84 0 5 0 170 0 0 0
84 0 6 0 171 0 0 1
84 8 0 0 165 0 1 0
84 8 1 0 166 0 0 0
84 8 2 0 167 0 0 0
84 8 3 0 168 0 0 0
84 8 4 0 169 0 0 0
84 8 5 0 170 0 0 0
84 8 6 0 171 0 0 1
85 0 0 0 167 0 1 0
85 0 1 0 168 0 0 0
85 0 2 0 169 0 0 0
85 0 3 0 170 0 0 0
85 0 4 0 171 0 0 0
85 0 5 0 172 0 0 0
85 0 6 0 173 0 0 1
85 8 0 0 167 0 1 0
85 8 1 0 168 0 0 0
85 8 2 0 169 0 0 0
85 8 3 0 170 0 0 0
85 8 4 0 171 0 0 0
85 8 5 0 172 0 0 0
85 8 6 0 173 0 0 1
86 0 0 0 169 0 1 0
86 0 1 0 170 0 0 0
86 0 2 0 171 0 0 0
86 0 3 0 172 0 0 0
86 0 4 0 173 0 0 0
86 0 5 0 174 0 0 0
86 0 6 0 175 0 0 1
86 8 0 0 169 0 1 0
86 8 1 0 170 0 0 0
86 8 2 0 171 0 0 0
86 8 3 0 172 0 0 0
86 8 4 0 173 0 0 0
86 8 5 0 174 0 0 0
86 8 6 0 175 0 0 1
87 0 0 0 171 0 1 0
87 0 1 0 172 0 0 0
87 0 2 0 173 0 0 0
87 0 3 0 174 0 0 0
87 0 4 0 175 0 0 0
87 0 5 0 176 0 0 0
87 0 6 0 177 0 0 1
87 8 0 0 171 0 1 0
87 8 1 0 172 0 0 0
87 8 2 0 173 0 0 0
87 8 3 0 174 0 0 0
87 8 4 0 175 0 0 0
87 8 5 0 176 0 0 0
87 8 6 0 177 0 0 1
88 0 0 0 173 0 1 0
88 0 1 0 174 0 0 0
88 0 2 0 175 0 0 0
88 0 3 0 176 0 0 0
88 0 4 0 177 0 0 0
88 0 5 0 178 0 0 0
88 0 6 0 179 0 0 1
88 8 0 0 173 0 1 0
88 8 1 0 174 0 0 0
88 8 2 0 175 0 0 0
88 8 3 0 176 0 0 0
88 8 4 0 177 0 0 0
88 8 5 0 178 0 0 0
88 8 6 0 179 0 0 1
89 0 0 0 175 0 1 0
89 0 1 0 176 0 0 0
89 0 2 0 177 0 0 0
89 0 3 0 178 0 0 0
89 0 4 0 179 0 0 0
89 0 5 0 180 0 0 0
89 0 6 0 181 0 0 1
89 8 0 0 175 0 1 0
89 8 1 0 176 0 0 0
89 8 2 0 177 0 0 0
89 8 3 0 178 0 0 0
89 8 4 0 179 0 0 0
89 8 5 0 180 0 0 0
89 8 6 0 181 0 0 1
90 0 0 0 177 0 1 0
90 0 1 0 178 0 0 0
90 0 2 0 179 0 0 0
90 0 3 0 180 0 0 0
90 0 4 0 181 0 0 0
90 0 5 0 182 0 0 0
90 0 6 0 183 0 0 1
90 8 0 0 177 0 1 0
90 8 1 0 178 0 0 0
90 8 2 0 179 0 0 0
90 8 3 0 180 0 0 0
90 8 4 0 181 0 0 0
90 8 5 0 182 0 0 0
90 8 6 0 183 0 0 1
91 0 0 0 179 0 1 0
91 0 1 0 180 0 0 0
91 0 2 0 181 0 0 0
91 0 3 0 182 0 0 0
91 0 4 0 183 0 0 0
91 0 5 0 184 0 0 0
91 0 6 0 185 0 0 1
91 8 0 0 179 0 1 0
91 8 1 0 180 0 0 0
91 8 2 0 181 0 0 0
91 8 3 0 182 0 0 0
91 8 4 0 183 0 0 0
91 8 5 0 184 0 0 0
91 8 6 0 185 0 0 1
92 0 0 0 181 0 1 0
92 0 1 0 182 0 0 0
92 0 2 0 183 0 0 0
92 0 3 0 184 0 0 0
92 0 4 0 185 0 0 0
92 0 5 0 186 0 0 0
92 0 6 0 187 0 0 1
92 8 0 0 181 0 1 0
92 8 1 0 182 0 0 0
92 8 2 0 183 0 0 0
92 8 3 0 184 0 0 0
92 8 4 0 185 0 0 0
92 8 5 0 186 0 0 0
92 8 6 0 187 0 0 1
93 0 0 0 183 0 1 0
93 0 1 0 184 0 0 0
93 0 2 0 185 0 0 0
93 0 3 0 186 0 0 0
93 0 4 0 187 0 0 0
93 0 5 0 188 0 0 0
93 0 6 0 189 0 0 1
93 8 0 0 183 0 1 0
93 8 1 0 184 0 0 0
93 8 2 0 185 0 0 0
93 8 3 0 186 0 0 0
93 8 4 0 187 0 0 0
93 8 5 0 188 0 0 0
93 8 6 0 189 0 0 1
94 0 0 0 185 0 1 0
94 0 1 0 186 0 0 0
94 0 2 0 187 0 0 0
94 0 3 0 188 0 0 0
94 0 4 0 189 0 0 0
94 0 5 0 190 0 0 0
94 0 6 0 191 0 0 1
94 8 0 0 185 0 1 0
94 8 1 0 186 0 0 0
94 8 2 0 187 0 0 0
94 8 3 0 188 0 0 0
94 8 4 0 189 0 0 0
94 8 5 0 190 0 0 0
94 8 6 0 191 0 0 1
95 0 0 0 187 0 1 0
95 0 1 0 188 0 0 0
95 0 2 0 189 0 0 0
95 0 3 0 190 0 0 0
95 0 4 0 191 0 0 0
95 0 5 0 192 0 0 0
95 0 6 0 193 0 0 1
95 8 0 0 187 0 1 0
95 8 1 0 188 0 0 0
95 8 2 0 189 0 0 0
95 8 3 0 190 0 0 0
95 8 4 0 191 0 0 0
95 8 5 0 192 0 0 0
95 8 6 0 193 0 0 1
96 0 0 0 189 0 1 0
96 0 1 0 190 0 0 0
96 0 2 0 191 0 0 0
96 0 3 0 192 0 0 0
96 0 4 0 193 0 0 0
96 0 5 0 194 0 0 0
96 0 6 0 195 0 0 1
96 8 0 0 189 0 1 0
96 8 1 0 190 0 0 0
96 8 2 0 191 0 0 0
96 8 3 0 192 0 0 0
96 8 4 0 193 0 0 0
96 8 5 0 194 0 0 0
96 8 6 0 195 0 0 1
97 0 0 0 191 0 1 0
97 0 1 0 192 0 0 0
97 0 2 0 193 0 0 0
97 0 3 0 194 0 0 0
97 0 4 0 195 0 0 0
97 0 5 0 196 0 0 0
97 0 6 0 197 0 0 1
97 8 0 0 191 0 1 0
97 8 1 0 192 0 0 0
97 8 2 0 193 0 0 0
97 8 3 0 194 0 0 0
97 8 4 0 195 0 0 0
97 8 5 0 196 0 0 0
97 8 6 0 197 0 0 1
98 0 0 0 193 0 1 0
98 0 1 0 194 0 0 0
98 0 2 0 195 0 0 0
98 0 3 0 196 0 0 0
98 0 4 0 197 0 0 0
98 0 5 0 198 0 0 0
98 0 6 0 199 0 0 1
98 8 0 0 193 0 1 0
98 8 1 0 194 0 0 0
98 8 2 0 195 0 0 0
98 8 3 0 196 0 0 0
98 8 4 0 197 0 0 0
98 8 5 0 198 0 0 0
98 8 6 0 199 0 0 1
99 0 0 0 195 0 1 0
99 0 1 0 196 0 0 0
99 0 2 0 197 0 0 0
99 0 3 0 198 0 0 0
99 0 4 0 199 0 0 0
99 0 5 0 200 0 0 0
99 0 6 0 201 0 0 1
99 8 0 0 195 0 1 0
99 8 1 0 196 0 0 0
99 8 2 0 197 0 0 0
99 8 3 0 198 0 0 0
99 8 4 0 199 0 0 0
99 8 5 0 200 0 0 0
99 8 6 0 201 0 0 1
100 0 0 0 197 0 1 0
100 0 1 0 198 0 0 0
100 0 2 0 199 0 0 0
100 0 3 0 200 0 0 0
100 0 4 0 201 0 0 0
100 0 5 0 202 0 0 0
100 0 6 0 203 0 0 1
100 8 0 0 197 0 1 0
100 8 1 0 198 0 0 0
100 8 2 0 199 0 0 0
100 8 3 0 200 0 0 0
100 8 4 0 201 0 0 0
100 8 5 0 202 0 0 0
100 8 6 0 203 0 0 1
101 0 0 0 199 0 1 0
101 0 1 0 200 0 0 0
101 0 2 0 201 0 0 0
101 0 3 0 202 0 0 0
101 0 4 0 203 0 0 0
101 0 5 0 204 0 0 0
101 0 6 0 205 0 0 1
101 8 0 0 199 0 1 0
101 8 1 0 200 0 0 0
101 8 2 0 201 0 0 0
101 8 3 0 202 0 0 0
101 8 4 0 203 0 0 0
101 8 5 0 204 0 0 0
101 8 6 0 205 0 0 1
102 0 0 0 201 0 1 0
102 0 1 0 202 0 0 0
102 0 2 0 203 0 0 0
102 0 3 0 204 0 0 0
102 0 4 0 205 0 0 0
102 0 5 0 206 0 0 0
102 0 6 0 207 0 0 1
102 8 0 0 201 0 1 0
102 8 1 0 202 0 0 0
102 8 2 0 203 0 0 0
102 8 3 0 204 0 0 0
102 8 4 0 205 0 0 0
102 8 5 0 206 0 0 0
102 8 6 0 207 0 0 1
103 0 0 0 203 0 1 0
103 0 1 0 204 0 0 0
103 0 2 0 205 0 0 0
103 0 3 0 206 0 0 0
103 0 4 0 207 0 0 0
103 0 5 0 208 0 0 0
103 0 6 0 209 0 0 1
103 8 0 0 203 0 1 0
103 8 1 0 204 0 0 0
103 8 2 0 205 0 0 0
103 8 3 0 206 0 0 0
103 8 4 0 207 0 0 0
103 8 5 0 208 0 0 0
103 8 6 0 209 0 0 1
104 0 0 0 205 0 1 0
104 0 1 0 206 0 0 0
104 0 2 0 207 0 0 0
104 0 3 0 208 0 0 0
104 0 4 0 209 0 0 0
104 0 5 0 210 0 0 0
104 0 6 0 211 0 0 1
104 8 0 0 205 0 1 0
104 8 1 0 206 0 0 0
104 8 2 0 207 0 0 0
104 8 3 0 208 0 0 0
104 8 4 0 209 0 0 0
104 8 5 0 210 0 0 0
104 8 6 0 211 0 0 1
105 0 0 0 207 0 1 0
105 0 1 0 208 0 0 0
105 0 2 0 209 0 0 0
105 0 3 0 210 0 0 0
105 0 4 0 211 0 0 0
105 0 5 0 212 0 0 0
105 0 6 0 213 0 0 1
105 8 0 0 207 0 1 0
105 8 1 0 208 0 0 0
105 8 2 0 209 0 0 0
105 8 3 0 210 0 0 0
105 8 4 0 211 0 0 0
105 8 5 0 212 0 0 0
105 8 6 0 213 0 0 1
106 0 0 0 209 0 1 0
106 0 1 0 210 0 0 0
106 0 2 0 211 0 0 0
106 0 3 0 212 0 0 0
106 0 4 0 213 0 0 0
106 0 5 0 214 0 0 0
106 0 6 0 215 0 0 1
106 8 0 0 209 0 1 0
106 8 1 0 210 0 0 0
106 8 2 0 211 0 0 0
106 8 3 0 212 0 0 0
106 8 4 0 213 0 0 0
106 8 5 0 214 0 0 0
106 8 6 0 215 0 0 1
107 0 0 0 211 0 1 0
107 0 1 0 212 0 0 0
107 0 2 0 213 0 0 0
107 0 3 0 214 0 0 0
107 0 4 0 215 0 0 0
107 0 5 0 216 0 0 0
107 0 6 0 217 0 0 1
107 8 0 0 211 0 1 0
107 8 1 0 212 0 0 0
107 8 2 0 213 0 0 0
107 8 3 0 214 0 0 0
107 8 4 0 215 0 0 0
107 8 5 0 216 0 0 0
107 8 6 0 217 0 0 1
108 0 0 0 213 0 1 0
108 0 1 0 214 0 0 0
108 0 2 0 215 0 0 0
108 0 3 0 216 0 0 0
108 0 4 0 217 0 0 0
108 0 5 0 218 0 0 0
108 0 6 0 219 0 0 1
108 8 0 0 213 0 1 0
108 8 1 0 214 0 0 0
108 8 2 0 215 0 0 0
108 8 3 0 216 0 0 0
108 8 4 0 217 0 0 0
108 8 5 0 218 0 0 0
108 8 6 0 219 0 0 1
109 0 0 0 215 0 1 0
109 0 1 0 216 0 0 0
109 0 2 0 217 0 0 0
109 0 3 0 218 0 0 0
109 0 4 0 219 0 0 0
109 0 5 0 220 0 0 0
109 0 6 0 221 0 0 1
109 8 0 0 215 0 1 0
109 8 1 0 216 0 0 0
109 8 2 0 217 0 0 0
109 8 3 0 218 0 0 0
109 8 4 0 219 0 0 0
109 8 5 0 220 0 0 0
109 8 6 0 221 0 0 1
110 0 0 0 217 0 1 0
110 0 1 0 218 0 0 0
110 0 2 0 219 0 0 0
110 0 3 0 220 0 0 0
110 0 4 0 221 0 0 0
110 0 5 0 222 0 0 0
110 0 6 0 223 0 0 1
110 8 0 0 217 0 1 0
110 8 1 0 218 0 0 0
110 8 2 0 219 0 0 0
110 8 3 0 220 0 0 0
110 8 4 0 221 0 0 0
110 8 5 0 222 0 0 0
110 8 6 0 223 0 0 1
111 0 0 0 219 0 1 0
111 0 1 0 220 0 0 0
111 0 2 0 221 0 0 0
111 0 3 0 222 0 0 0
111 0 4 0 223 0 0 0
111 0 5 0 224 0 0 0
111 0 6 0 225 0 0 1
111 8 0 0 219 0 1 0
111 8 1 0 220 0 0 0
111 8 2 0 221 0 0 0
111 8 3 0 222 0 0 0
111 8 4 0 223 0 0 0
111 8 5 0 224 0 0 0
111 8 6 0 225 0 0 1
112 0 0 0 221 0 1 0
112 0 1 0 222 0 0 0
112 0 2 0 223 0 0 0
112 0 3 0 224 0 0 0
112 0 4 0 225 0 0 0
112 0 5 0 226 0 0 0
112 0 6 0 227 0 0 1
112 8 0 0 221 0 1 0
112 8 1 0 222 0 0 0
112 8 2 0 223 0 0 0
112 8 3 0 224 0 0 0
112 8 4 0 225 0 0 0
112 8 5 0 226 0 0 0
112 8 6 0 227 0 0 1
113 0 0 0 223 0 1 0
113 0 1 0 224 0 0 0
113 0 2 0 225 0 0 0
113 0 3 0 226 0 0 0
113 0 4 0 227 0 0 0
113 0 5 0 228 0 0 0
113 0 6 0 229 0 0 1
113 8 0 0 223 0 1 0
113 8 1 0 224 0 0 0
113 8 2 0 225 0 0 0
113 8 3 0 226 0 0 0
113 8 4 0 227 0 0 0
113 8 5 0 228 0 0 0
113 8 6 0 229 0 0 1
114 0 0 0 225 0 1 0
114 0 1 0 226 0 0 0
114 0 2 0 227 0 0 0
114 0 3 0 228 0 0 0
114 0 4 0 229 0 0 0
114 0 5 0 230 0 0 0
114 0 6 0 231 0 0 1
114 8 0 0 225 0 1 0
114 8 1 0 226 0 0 0
114 8 2 0 227 0 0 0
114 8 3 0 228 0 0 0
114 8 4 0 229 0 0 0
114 8 5 0 230 0 0 0
114 8 6 0 231 0 0 1
115 0 0 0 227 0 1 0
115 0 1 0 228 0 0 0
115 0 2 0 229 0 0 0
115 0 3 0 230 0 0 0
115 0 4 0 231 0 0 0
115 0 5 0 232 0 0 0
115 0 6 0 233 0 0 1
115 8 0 0 227 0 1 0
115 8 1 0 228 0 0 0
115 8 2 0 229 0 0 0
115 8 3 0 230 0 0 0
115 8 4 0 231 0 0 0
115 8 5 0 232 0 0 0
115 8 6 0 233 0 0 1
116 0 0 0 229 0 1 0
116 0 1 0 230 0 0 0
116 0 2 0 231 0 0 0
116 0 3 0 232 0 0 0
116 0 4 0 233 0 0 0
116 0 5 0 234 0 0 0
116 0 6 0 235 0 0 1
116 8 0 0 229 0 1 0
116 8 1 0 230 0 0 0
116 8 2 0 231 0 0 0
116 8 3 0 232 0 0 0
116 8 4 0 233 0 0 0
116 8 5 0 234 0 0 0
116 8 6 0 235 0 0 1
117 0 0 0 231 0 1 0
117 0 1 0 232 0 0 0
117 0 2 0 233 0 0 0
117 0 3 0 234 0 0 0
117 0 4 0 235 0 0 0
117 0 5 0 236 0 0 0
117 0 6 0 237 0 0 1
117 8 0 0 231 0 1 0
117 8 1 0 232 0 0 0
117 8 2 0 233 0 0 0
117 8 3 0 234 0 0 0
117 8 4 0 235 0 0 0
117 8 5 0 236 0 0 0
117 8 6 0 237 0 0 1
118 0 0 0 233 0 1 0
118 0 1 0 234 0 0 0
118 0 2 0 235 0 0 0
118 0 3 0 236 0 0 0
118 0 4 0 237 0 0 0
118 0 5 0 238 0 0 0
118 0 6 0 239 0 0 1
118 8 0 0 233 0 1 0
118 8 1 0 234 0 0 0
118 8 2 0 235 0 0 0
118 8 3 0 236 0 0 0
118 8 4 0 237 0 0 0
118 8 5 0 238 0 0 0
118 8 6 0 239 0 0 1
119 0 0 0 235 0 1 0
119 0 1 0 236 0 0 0
119 0 2 0 237 0 0 0
119 0 3 0 238 0 0 0
119 0 4 0 239 0 0 0
119 0 5 0 240 0 0 0
119 0 6 0 241 0 0 1
119 8 0 0 235 0 1 0
119 8 1 0 236 0 0 0
119 8 2 0 237 0 0 0
119 8 3 0 238 0 0 0
119 8 4 0 239 0 0 0
119 8 5 0 240 0 0 0
119 8 6 0 241 0 0 1
120 0 0 0 237 0 1 0
120 0 1 0 238 0 0 0
120 0 2 0 239 0 0 0
120 0 3 0 240 0 0 0
120 0 4 0 241 0 0 0
120 0 5 0 242 0 0 0
120 0 6 0 243 0 0 1
120 8 0 0 237 0 1 0
120 8 1 0 238 0 0 0
120 8 2 0 239 0 0 0
120 8 3 0 240 0 0 0
120 8 4 0 241 0 0 0
120 8 5 0 242 0 0 0
120 8 6 0 243 0 0 1
121 0 0 0 239 0 1 0
121 0 1 0 240 0 0 0
121 0 2 0 241 0 0 0
121 0 3 0 242 0 0 0
121 0 4 0 243 0 0 0
121 0 5 0 244 0 0 0
121 0 6 0 245 0 0 1
121 8 0 0 239 0 1 0
121 8 1 0 240 0 0 0
121 8 2 0 241 0 0 0
121 8 3 0 242 0 0 0
121 8 4 0 243 0 0 0
121 8 5 0 244 0 0 0
121 8 6 0 245 0 0 1
122 0 0 0 241 0 1 0
122 0 1 0 242 0 0 0
122 0 2 0 243 0 0 0
122 0 3 0 244 0 0 0
122 0 4 0 245 0 0 0
122 0 5 0 246 0 0 0
122 0 6 0 247 0 0 1
122 8 0 0 241 0 1 0
122 8 1 0 242 0 0 0
122 8 2 0 243 0 0 0
122 8 3 0 244 0 0 0
122 8 4 0 245 0 0 0
122 8 5 0 246 0 0 0
122 8 6 0 247 0 0 1
123 0 0 0 243 0 1 0
123 0 1 0 244 0 0 0
123 0 2 0 245 0 0 0
123 0 3 0 246 0 0 0
123 0 4 0 247 0 0 0
123 0 5 0 248 0 0 0
123 0 6 0 249 0 0 1
123 8 0 0 243 0 1 0
123 8 1 0 244 0 0 0
123 8 2 0 245 0 0 0
123 8 3 0 246 0 0 0
123 8 4 0 247 0 0 0
123 8 5 0 248 0 0 0
123 8 6 0 249 0 0 1
124 0 0 0 245 0 1 0
124 0 1 0 246 0 0 0
124 0 2 0 247 0 0 0
124 0 3 0 248 0 0 0
124 0 4 0 249 0 0 0
124 0 5 0 250 0 0 0
124 0 6 0 251 0 0 1
124 8 0 0 245 0 1 0
124 8 1 0 246 0 0 0
124 8 2 0 247 0 0 0
124 8 3 0 248 0 0 0
124 8 4 0 249 0 0 0
124 8 5 0 250 0 0 0
124 8 6 0 251 0 0 1
125 0 0 0 247 0 1 0
125 0 1 0 248 0 0 0
125 0 2 0 249 0 0 0
125 0 3 0 250 0 0 0
125 0 4 0 251 0 0 0
125 0 5 0 252 0 0 0
125 0 6 0 253 0 0 1
125 8 0 0 247 0 1 0
125 8 1 0 248 0 0 0
125 8 2 0 249 0 0 0
125 8 3 0 250 0 0 0
125 8 4 0 251 0 0 0
125 8 5 0 252 0 0 0
125 8 6 0 253 0 0 1
126 0 0 0 249 0 1 0
126 0 1 0 250 0 0 0
126 0 2 0 251 0 0 0
126 0 3 0 252 0 0 0
126 0 4 0 253 0 0 0
126 0 5 0 254 0 0 0
126 0 6 0 255 0 0 1
126 8 0 0 249 0 1 0
126 8 1 0 250 0 0 0
126 8 2 0 251 0 0 0
126 8 3 0 252 0 0 0
126 8 4 0 253 0 0 0
126 8 5 0 254 0 0 0
126 8 6 0 255 0 0 1
127 0 0 0 251 0 1 0
127 0 1 0 252 0 0 0
127 0 2 0 253 0 0 0
127 0 3 0 254 0 0 0
127 0 4 0 255 0 0 0
127 0 5 0 256 1 0 0
127 0 6 0 257 1 0 1
127 8 0 0 251 0 1 0
127 8 1 0 252 0 0 0
127 8 2 0 253 0 0 0
127 8 3 0 254 0 0 0
127 8 4 0 255 0 0 0
127 8 5 0 256 1 0 0
127 8 6 0 257 1 0 1
L 64 32 16 24 5 2 2 0 7680
0 0 0 0 -2 1 1 0
0 0 0 1 -2 1 0 0
0 0 0 2 -2 1 0 0
0 0 0 3 -2 1 0 0
0 0 0 4 -2 1 0 0
0 0 0 5 -2 1 0 0
0 0 0 6 -2 1 0 0
0 0 0 7 -2 1 0 0
0 0 0 8 -2 1 0 0
0 0 0 9 -2 1 0 0
0 0 0 10 -2 1 0 0
0 0 0 11 -2 1 0 0
0 0 0 12 -2 1 0 0
0 0 0 13 -2 1 0 0
0 0 0 14 -2 1 0 0
0 0 0 15 -2 1 0 0
0 0 1 0 -1 1 0 0
0 0 1 1 -1 1 0 0
0 0 1 2 -1 1 0 0
0 0 1 3 -1 1 0 0
0 0 1 4 -1 1 0 0
0 0 1 5 -1 1 0 0
0 0 1 6 -1 1 0 0
0 0 1 7 -1 1 0 0
0 0 1 8 -1 1 0 0
0 0 1 9 -1 1 0 0
0 0 1 10 -1 1 0 0
0 0 1 11 -1 1 0 0
0 0 1 12 -1 1 0 0
0 0 1 13 -1 1 0 0
0 0 1 14 -1 1 0 0
0 0 1 15 -1 1 0 0
0 0 2 0 0 0 0 0
0 0 2 1 0 0 0 0
0 0 2 2 0 0 0 0
0 0 2 3 0 0 0 0
0 0 2 4 0 0 0 0
0 0 2 5 0 0 0 0
0 0 2 6 0 0 0 0
0 0 2 7 0 0 0 0
0 0 2 8 0 0 0 0
0 0 2 9 0 0 0 0
0 0 2 10 0 0 0 0
0 0 2 11 0 0 0 0
0 0 2 12 0 0 0 0
0 0 2 13 0 0 0 0
0 0 2 14 0 0 0 0
0 0 2 15 0 0 0 0
0 0 3 0 1 0 0 0
0 0 3 1 1 0 0 0
0 0 3 2 1 0 0 0
0 0 3 3 1 0 0 0
0 0 3 4 1 0 0 0
0 0 3 5 1 0 0 0
0 0 3 6 1 0 0 0
0 0 3 7 1 0 0 0
0 0 3 8 1 0 0 0
0 0 3 9 1 0 0 0
0 0 3 10 1 0 0 0
0 0 3 11 1 0 0 0
0 0 3 12 1 0 0 0
0 0 3 13 1 0 0 0
0 0 3 14 1 0 0 0
0 0 3 15 1 0 0 0
0 0 4 0 2 0 0 0
0 0 4 1 2 0 0 0
0 0 4 2 2 0 0 0
0 0 4 3 2 0 0 0
0 0 4 4 2 0 0 0
0 0 4 5 2 0 0 0
0 0 4 6 2 0 0 0
0 0 4 7 2 0 0 0
0 0 4 8 2 0 0 0
0 0 4 9 2 0 0 0
0 0 4 10 2 0 0 0
0 0 4 11 2 0 0 0
0 0 4 12 2 0 0 0
0 0 4 13 2 0 0 0
0 0 4 14 2 0 0 0
0 0 4 15 2 0 0 1
0 8 0 0 -2 1 1 0
0 8 0 1 -2 1 0 0
0 8 0 2 -2 1 0 0
0 8 0 3 -2 1 0 0
0 8 0 4 -2 1 0 0
0 8 0 5 -2 1 0 0
0 8 0 6 -2 1 0 0
0 8 0 7 -2 1 0 0
0 8 0 8 -2 1 0 0
0 8 0 9 -2 1 0 0
0 8 0 10 -2 1 0 0
0 8 0 11 -2 1 0 0
0 8 0 12 -2 1 0 0
0 8 0 13 -2 1 0 0
0 8 0 14 -2 1 0 0
0 8 0 15 -2 1 0 0
0 8 1 0 -1 1 0 0
0 8 1 1 -1 1 0 0
0 8 1 2 -1 1 0 0
0 8 1 3 -1 1 0 0
0 8 1 4 -1 1 0 0
0 8 1 5 -1 1 0 0
0 8 1 6 -1 1 0 0
0 8 1 7 -1 1 0 0
0 8 1 8 -1 1 0 0
0 8 1 9 -1 1 0 0
0 8 1 10 -1 1 0 0
0 8 1 11 -1 1 0 0
0 8 1 12 -1 1 0 0
0 8 1 13 -1 1 0 0
0 8 1 14 -1 1 0 0
0 8 1 15 -1 1 0 0
0 8 2 0 0 0 0 0
0 8 2 1 0 0 0 0
0 8 2 2 0 0 0 0
0 8 2 3 0 0 0 0
0 8 2 4 0 0 0 0
0 8 2 5 0 0 0 0
0 8 2 6 0 0 0 0
0 8 2 7 0 0 0 0
0 8 2 8 0 0 0 0
0 8 2 9 0 0 0 0
0 8 2 10 0 0 0 0
0 8 2 11 0 0 0 0
0 8 2 12 0 0 0 0
0 8 2 13 0 0 0 0
0 8 2 14 0 0 0 0
0 8 2 15 0 0 0 0
0 8 3 0 1 0 0 0
0 8 3 1 1 0 0 0
0 8 3 2 1 0 0 0
0 8 3 3 1 0 0 0
0 8 3 4 1 0 0 0
0 8 3 5 1 0 0 0
0 8 3 6 1 0 0 0
0 8 3 7 1 0 0 0
0 8 3 8 1 0 0 0
0 8 3 9 1 0 0 0
0 8 3 10 1 0 0 0
0 8 3 11 1 0 0 0
0 8 3 12 1 0 0 0
0 8 3 13 1 0 0 0
0 8 3 14 1 0 0 0
0 8 3 15 1 0 0 0
0 8 4 0 2 0 0 0
0 8 4 1 2 0 0 0
0 8 4 2 2 0 0 0
0 8 4 3 2 0 0 0
0 8 4 4 2 0 0 0
0 8 4 5 2 0 0 0
0 8 4 6 2 0 0 0
0 8 4 7 2 0 0 0
0 8 4 8 2 0 0 0
0 8 4 9 2 0 0 0
0 8 4 10 2 0 0 0
0 8 4 11 2 0 0 0
0 8 4 12 2 0 0 0
0 8 4 13 2 0 0 0
0 8 4 14 2 0 0 0
0 8 4 15 2 0 0 1
0 16 0 0 -2 1 1 0
0 16 0 1 -2 1 0 0
0 16 0 2 -2 1 0 0
0 16 0 3 -2 1 0 0
0 16 0 4 -2 1 0 0
0 16 0 5 -2 1 0 0
0 16 0 6 -2 1 0 0
0 16 0 7 -2 1 0 0
0 16 0 8 -2 1 0 0
0 16 0 9 -2 1 0 0
0 16 0 10 -2 1 0 0
0 16 0 11 -2 1 0 0
0 16 0 12 -2 1 0 0
0 16 0 13 -2 1 0 0
0 16 0 14 -2 1 0 0
0 16 0 15 -2 1 0 0
0 16 1 0 -1 1 0 0
0 16 1 1 -1 1 0 0
0 16 1 2 -1 1 0 0
0 16 1 3 -1 1 0 0
0 16 1 4 -1 1 0 0
0 16 1 5 -1 1 0 0
0 16 1 6 -1 1 0 0
0 16 1 7 -1 1 0 0
0 16 1 8 -1 1 0 0
0 16 1 9 -1 1 0 0
0 16 1 10 -1 1 0 0
0 16 1 11 -1 1 0 0
0 16 1 12 -1 1 0 0
0 16 1 13 -1 1 0 0
0 16 1 14 -1 1 0 0
0 16 1 15 -1 1 0 0
0 16 2 0 0 0 0 0
0 16 2 1 0 0 0 0
0 16 2 2 0 0 0 0
0 16 2 3 0 0 0 0
0 16 2 4 0 0 0 0
0 16 2 5 0 0 0 0
0 16 2 6 0 0 0 0
0 16 2 7 0 0 0 0
0 16 2 8 0 0 0 0
0 16 2 9 0 0 0 0
0 16 2 10 0 0 0 0
0 16 2 11 0 0 0 0
0 16 2 12 0 0 0 0
0 16 2 13 0 0 0 0
0 16 2 14 0 0 0 0
0 16 2 15 0 0 0 0
0 16 3 0 1 0 0 0
0 16 3 1 1 0 0 0
0 16 3 2 1 0 0 0
0 16 3 3 1 0 0 0
0 16 3 4 1 0 0 0
0 16 3 5 1 0 0 0
0 16 3 6 1 0 0 0
0 16 3 7 1 0 0 0
0 16 3 8 1 0 0 0
0 16 3 9 1 0 0 0
0 16 3 10 1 0 0 0
0 16 3 11 1 0 0 0
0 16 3 12 1 0 0 0
0 16 3 13 1 0 0 0
0 16 3 14 1 0 0 0
0 16 3 15 1 0 0 0
0 16 4 0 2 0 0 0
0 16 4 1 2 0 0 0
0 16 4 2 2 0 0 0
0 16 4 3 2 0 0 0
0 16 4 4 2 0 0 0
0 16 4 5 2 0 0 0
0 16 4 6 2 0 0 0
0 16 4 7 2 0 0 0
0 16 4 8 2 0 0 0
0 16 4 9 2 0 0 0
0 16 4 10 2 0 0 0
0 16 4 11 2 0 0 0
0 16 4 12 2 0 0 0
0 16 4 13 2 0 0 0
0 16 4 14 2 0 0 0
0 16 4 15 2 0 0 1
1 0 0 0 0 0 1 0
1 0 0 1 0 0 0 0
1 0 0 2 0 0 0 0
1 0 0 3 0 0 0 0
1 0 0 4 0 0 0 0
1 0 0 5 0 0 0 0
1 0 0 6 0 0 0 0
1 0 0 7 0 0 0 0
1 0 0 8 0 0 0 0
1 0 0 9 0 0 0 0
1 0 0 10 0 0 0 0
1 0 0 11 0 0 0 0
1 0 0 12 0 0 0 0
1 0 0 13 0 0 0 0
1 0 0 14 0 0 0 0
1 0 0 15 0 0 0 0
1 0 1 0 1 0 0 0
1 0 1 1 1 0 0 0
1 0 1 2 1 0 0 0
1 0 1 3 1 0 0 0
1 0 1 4 1 0 0 0
1 0 1 5 1 0 0 0
1 0 1 6 1 0 0 0
1 0 1 7 1 0 0 0
1 0 1 8 1 0 0 0
1 0 1 9 1 0 0 0
1 0 1 10 1 0 0 0
1 0 1 11 1 0 0 0
1 0 1 12 1 0 0 0
1 0 1 13 1 0 0 0
1 0 1 14 1 0 0 0
1 0 1 15 1 0 0 0
1 0 2 0 2 0 0 0
1 0 2 1 2 0 0 0
1 0 2 2 2 0 0 0
1 0 2 3 2 0 0 0
1 0 2 4 2 0 0 0
1 0 2 5 2 0 0 0
1 0 2 6 2 0 0 0
1 0 2 7 2 0 0 0
1 0 2 8 2 0 0 0
1 0 2 9 2 0 0 0
1 0 2 10 2 0 0 0
1 0 2 11 2 0 0 0
1 0 2 12 2 0 0 0
1 0 2 13 2 0 0 0
1 0 2 14 2 0 0 0
1 0 2 15 2 0 0 0
1 0 3 0 3 0 0 0
1 0 3 1 3 0 0 0
1 0 3 2 3 0 0 0
1 0 3 3 3 0 0 0
1 0 3 4 3 0 0 0
1 0 3 5 3 0 0 0
1 0 3 6 3 0 0 0
1 0 3 7 3 0 0 0
1 0 3 8 3 0 0 0
1 0 3 9 3 0 0 0
1 0 3 10 3 0 0 0
1 0 3 11 3 0 0 0
1 0 3 12 3 0 0 0
1 0 3 13 3 0 0 0
1 0 3 14 3 0 0 0
1 0 3 15 3 0 0 0
1 0 4 0 4 0 0 0
1 0 4 1 4 0 0 0
1 0 4 2 4 0 0 0
1 0 4 3 4 0 0 0
1 0 4 4 4 0 0 0
1 0 4 5 4 0 0 0
1 0 4 6 4 0 0 0
1 0 4 7 4 0 0 0
1 0 4 8 4 0 0 0
1 0 4 9 4 0 0 0
1 0 4 10 4 0 0 0
1 0 4 11 4 0 0 0
1 0 4 12 4 0 0 0
1 0 4 13 4 0 0 0
1 0 4 14 4 0 0 0
1 0 4 15 4 0 0 1
1 8 0 0 0 0 1 0
1 8 0 1 0 0 0 0
1 8 0 2 0 0 0 0
1 8 0 3 0 0 0 0
1 8 0 4 0 0 0 0
1 8 0 5 0 0 0 0
1 8 0 6 0 0 0 0
1 8 0 7 0 0 0 0
1 8 0 8 0 0 0 0
1 8 0 9 0 0 0 0
1 8 0 10 0 0 0 0
1 8 0 11 0 0 0 0
1 8 0 12 0 0 0 0
1 8 0 13 0 0 0 0
1 8 0 14 0 0 0 0
1 8 0 15 0 0 0 0
1 8 1 0 1 0 0 0
1 8 1 1 1 0 0 0
1 8 1 2 1 0 0 0
1 8 1 3 1 0 0 0
1 8 1 4 1 0 0 0
1 8 1 5 1 0 0 0
1 8 1 6 1 0 0 0
1 8 1 7 1 0 0 0
1 8 1 8 1 0 0 0
1 8 1 9 1 0 0 0
1 8 1 10 1 0 0 0
1 8 1 11 1 0 0 0
1 8 1 12 1 0 0 0
1 8 1 13 1 0 0 0
1 8 1 14 1 0 0 0
1 8 1 15 1 0 0 0
1 8 2 0 2 0 0 0
1 8 2 1 2 0 0 0
1 8 2 2 2 0 0 0
1 8 2 3 2 0 0 0
1 8 2 4 2 0 0 0
1 8 2 5 2 0 0 0
1 8 2 6 2 0 0 0
1 8 2 7 2 0 0 0
1 8 2 8 2 0 0 0
1 8 2 9 2 0 0 0
1 8 2 10 2 0 0 0
1 8 2 11 2 0 0 0
1 8 2 12 2 0 0 0
1 8 2 13 2 0 0 0
1 8 2 14 2 0 0 0
1 8 2 15 2 0 0 0
1 8 3 0 3 0 0 0
1 8 3 1 3 0 0 0
1 8 3 2 3 0 0 0
1 8 3 3 3 0 0 0
1 8 3 4 3 0 0 0
1 8 3 5 3 0 0 0
1 8 3 6 3 0 0 0
1 8 3 7 3 0 0 0
1 8 3 8 3 0 0 0
1 8 3 9 3 0 0 0
1 8 3 10 3 0 0 0
1 8 3 11 3 0 0 0
1 8 3 12 3 0 0 0
1 8 3 13 3 0 0 0
1 8 3 14 3 0 0 0
1 8 3 15 3 0 0 0
1 8 4 0 4 0 0 0
1 8 4 1 4 0 0 0
1 8 4 2 4 0 0 0
1 8 4 3 4 0 0 0
1 8 4 4 4 0 0 0
1 8 4 5 4 0 0 0
1 8 4 6 4 0 0 0
1 8 4 7 4 0 0 0
1 8 4 8 4 0 0 0
1 8 4 9 4 0 0 0
1 8 4 10 4 0 0 0
1 8 4 11 4 0 0 0
1 8 4 12 4 0 0 0
1 8 4 13 4 0 0 0
1 8 4 14 4 0 0 0
1 8 4 15 4 0 0 1
1 16 0 0 0 0 1 0
1 16 0 1 0 0 0 0
1 16 0 2 0 0 0 0
1 16 0 3 0 0 0 0
1 16 0 4 0 0 0 0
1 16 0 5 0 0 0 0
1 16 0 6 0 0 0 0
1 16 0 7 0 0 0 0
1 16 0 8 0 0 0 0
1 16 0 9 0 0 0 0
1 16 0 10 0 0 0 0
1 16 0 11 0 0 0 0
1 16 0 12 0 0 0 0
1 16 0 13 0 0 0 0
1 16 0 14 0 0 0 0
1 16 0 15 0 0 0 0
1 16 1 0 1 0 0 0
1 16 1 1 1 0 0 0
1 16 1 2 1 0 0 0
1 16 1 3 1 0 0 0
1 16 1 4 1 0 0 0
1 16 1 5 1 0 0 0
1 16 1 6 1 0 0 0
1 16 1 7 1 0 0 0
1 16 1 8 1 0 0 0
1 16 1 9 1 0 0 0
1 16 1 10 1 0 0 0
1 16 1 11 1 0 0 0
1 16 1 12 1 0 0 0
1 16 1 13 1 0 0 0
1 16 1 14 1 0 0 0
1 16 1 15 1 0 0 0
1 16 2 0 2 0 0 0
1 16 2 1 2 0 0 0
1 16 2 2 2 0 0 0
1 16 2 3 2 0 0 0
1 16 2 4 2 0 0 0
1 16 2 5 2 0 0 0
1 16 2 6 2 0 0 0
1 16 2 7 2 0 0 0
1 16 2 8 2 0 0 0
1 16 2 9 2 0 0 0
1 16 2 10 2 0 0 0
1 16 2 11 2 0 0 0
1 16 2 12 2 0 0 0
1 16 2 13 2 0 0 0
1 16 2 14 2 0 0 0
1 16 2 15 2 0 0 0
1 16 3 0 3 0 0 0
1 16 3 1 3 0 0 0
1 16 3 2 3 0 0 0
1 16 3 3 3 0 0 0
1 16 3 4 3 0 0 0
1 16 3 5 3 0 0 0
1 16 3 6 3 0 0 0
1 16 3 7 3 0 0 0
1 16 3 8 3 0 0 0
1 16 3 9 3 0 0 0
1 16 3 10 3 0 0 0
1 16 3 11 3 0 0 0
1 16 3 12 3 0 0 0
1 16 3 13 3 0 0 0
1 16 3 14 3 0 0 0
1 16 3 15 3 0 0 0
1 16 4 0 4 0 0 0
1 16 4 1 4 0 0 0
1 16 4 2 4 0 0 0
1 16 4 3 4 0 0 0
1 16 4 4 4 0 0 0
1 16 4 5 4 0 0 0
1 16 4 6 4 0 0 0
1 16 4 7 4 0 0 0
1 16 4 8 4 0 0 0
1 16 4 9 4 0 0 0
1 16 4 10 4 0 0 0
1 16 4 11 4 0 0 0
1 16 4 12 4 0 0 0
1 16 4 13 4 0 0 0
1 16 4 14 4 0 0 0
1 16 4 15 4 0 0 1
2 0 0 0 2 0 1 0
2 0 0 1 2 0 0 0
2 0 0 2 2 0 0 0
2 0 0 3 2 0 0 0
2 0 0 4 2 0 0 0
2 0 0 5 2 0 0 0
2 0 0 6 2 0 0 0
2 0 0 7 2 0 0 0
2 0 0 8 2 0 0 0
2 0 0 9 2 0 0 0
2 0 0 10 2 0 0 0
2 0 0 11 2 0 0 0
2 0 0 12 2 0 0 0
2 0 0 13 2 0 0 0
2 0 0 14 2 0 0 0
2 0 0 15 2 0 0 0
2 0 1 0 3 0 0 0
2 0 1 1 3 0 0 0
2 0 1 2 3 0 0 0
2 0 1 3 3 0 0 0
2 0 1 4 3 0 0 0
2 0 1 5 3 0 0 0
2 0 1 6 3 0 0 0
2 0 1 7 3 0 0 0
2 0 1 8 3 0 0 0
2 0 1 9 3 0 0 0
2 0 1 10 3 0 0 0
2 0 1 11 3 0 0 0
2 0 1 12 3 0 0 0
2 0 1 13 3 0 0 0
2 0 1 14 3 0 0 0
2 0 1 15 3 0 0 0
2 0 2 0 4 0 0 0
2 0 2 1 4 0 0 0
2 0 2 2 4 0 0 0
2 0 2 3 4 0 0 0
2 0 2 4 4 0 0 0
2 0 2 5 4 0 0 0
2 0 2 6 4 0 0 0
2 0 2 7 4 0 0 0
2 0 2 8 4 0 0 0
2 0 2 9 4 0 0 0
2 0 2 10 4 0 0 0
2 0 2 11 4 0 0 0
2 0 2 12 4 0 0 0
2 0 2 13 4 0 0 0
2 0 2 14 4 0 0 0
2 0 2 15 4 0 0 0
2 0 3 0 5 0 0 0
2 0 3 1 5 0 0 0
2 0 3 2 5 0 0 0
2 0 3 3 5 0 0 0
2 0 3 4 5 0 0 0
2 0 3 5 5 0 0 0
2 0 3 6 5 0 0 0
2 0 3 7 5 0 0 0
2 0 3 8 5 0 0 0
2 0 3 9 5 0 0 0
2 0 3 10 5 0 0 0
2 0 3 11 5 0 0 0
2 0 3 12 5 0 0 0
2 0 3 13 5 0 0 0
2 0 3 14 5 0 0 0
2 0 3 15 5 0 0 0
2 0 4 0 6 0 0 0
2 0 4 1 6 0 0 0
2 0 4 2 6 0 0 0
2 0 4 3 6 0 0 0
2 0 4 4 6 0 0 0
2 0 4 5 6 0 0 0
2 0 4 6 6 0 0 0
2 0 4 7 6 0 0 0
2 0 4 8 6 0 0 0
2 0 4 9 6 0 0 0
2 0 4 10 6 0 0 0
2 0 4 11 6 0 0 0
2 0 4 12 6 0 0 0
2 0 4 13 6 0 0 0
2 0 4 14 6 0 0 0
2 0 4 15 6 0 0 1
2 8 0 0 2 0 1 0
2 8 0 1 2 0 0 0
2 8 0 2 2 0 0 0
2 8 0 3 2 0 0 0
2 8 0 4 2 0 0 0
2 8 0 5 2 0 0 0
2 8 0 6 2 0 0 0
2 8 0 7 2 0 0 0
2 8 0 8 2 0 0 0
2 8 0 9 2 0 0 0
2 8 0 10 2 0 0 0
2 8 0 11 2 0 0 0
2 8 0 12 2 0 0 0
2 8 0 13 2 0 0 0
2 8 0 14 2 0 0 0
2 8 0 15 2 0 0 0
2 8 1 0 3 0 0 0
2 8 1 1 3 0 0 0
2 8 1 2 3 0 0 0
2 8 1 3 3 0 0 0
2 8 1 4 3 0 0 0
2 8 1 5 3 0 0 0
2 8 1 6 3 0 0 0
2 8 1 7 3 0 0 0
2 8 1 8 3 0 0 0
2 8 1 9 3 0 0 0
2 8 1 10 3 0 0 0
2 8 1 11 3 0 0 0
2 8 1 12 3 0 0 0
2 8 1 13 3 0 0 0
2 8 1 14 3 0 0 0
2 8 1 15 3 0 0 0
2 8 2 0 4 0 0 0
2 8 2 1 4 0 0 0
2 8 2 2 4 0 0 0
2 8 2 3 4 0 0 0
2 8 2 4 4 0 0 0
2 8 2 5 4 0 0 0
2 8 2 6 4 0 0 0
2 8 2 7 4 0 0 0
2 8 2 8 4 0 0 0
2 8 2 9 4 0 0 0
2 8 2 10 4 0 0 0
2 8 2 11 4 0 0 0
2 8 2 12 4 0 0 0
2 8 2 13 4 0 0 0
2 8 2 14 4 0 0 0
2 8 2 15 4 0 0 0
2 8 3 0 5 0 0 0
2 8 3 1 5 0 0 0
2 8 3 2 5 0 0 0
2 8 3 3 5 0 0 0
2 8 3 4 5 0 0 0
2 8 3 5 5 0 0 0
2 8 3 6 5 0 0 0
2 8 3 7 5 0 0 0
2 8 3 8 5 0 0 0
2 8 3 9 5 0 0 0
2 8 3 10 5 0 0 0
2 8 3 11 5 0 0 0
2 8 3 12 5 0 0 0
2 8 3 13 5 0 0 0
2 8 3 14 5 0 0 0
2 8 3 15 5 0 0 0
2 8 4 0 6 0 0 0
2 8 4 1 6 0 0 0
2 8 4 2 6 0 0 0
2 8 4 3 6 0 0 0
2 8 4 4 6 0 0 0
2 8 4 5 6 0 0 0
2 8 4 6 6 0 0 0
2 8 4 7 6 0 0 0
2 8 4 8 6 0 0 0
2 8 4 9 6 0 0 0
2 8 4 10 6 0 0 0
2 8 4 11 6 0 0 0
2 8 4 12 6 0 0 0
2 8 4 13 6 0 0 0
2 8 4 14 6 0 0 0
2 8 4 15 6 0 0 1
2 16 0 0 2 0 1 0
2 16 0 1 2 0 0 0
2 16 0 2 2 0 0 0
2 16 0 3 2 0 0 0
2 16 0 4 2 0 0 0
2 16 0 5 2 0 0 0
2 16 0 6 2 0 0 0
2 16 0 7 2 0 0 0
2 16 0 8 2 0 0 0
2 16 0 9 2 0 0 0
2 16 0 10 2 0 0 0
2 16 0 11 2 0 0 0
2 16 0 12 2 0 0 0
2 16 0 13 2 0 0 0
2 16 0 14 2 0 0 0
2 16 0 15 2 0 0 0
2 16 1 0 3 0 0 0
2 16 1 1 3 0 0 0
2 16 1 2 3 0 0 0
2 16 1 3 3 0 0 0
2 16 1 4 3 0 0 0
2 16 1 5 3 0 0 0
2 16 1 6 3 0 0 0
2 16 1 7 3 0 0 0
2 16 1 8 3 0 0 0
2 16 1 9 3 0 0 0
2 16 1 10 3 0 0 0
2 16 1 11 3 0 0 0
2 16 1 12 3 0 0 0
2 16 1 13 3 0 0 0
2 16 1 14 3 0 0 0
2 16 1 15 3 0 0 0
2 16 2 0 4 0 0 0
2 16 2 1 4 0 0 0
2 16 2 2 4 0 0 0
2 16 2 3 4 0 0 0
2 16 2 4 4 0 0 0
2 16 2 5 4 0 0 0
2 16 2 6 4 0 0 0
2 16 2 7 4 0 0 0
2 16 2 8 4 0 0 0
2 16 2 9 4 0 0 0
2 16 2 10 4 0 0 0
2 16 2 11 4 0 0 0
2 16 2 12 4 0 0 0
2 16 2 13 4 0 0 0
2 16 2 14 4 0 0 0
2 16 2 15 4 0 0 0
2 16 3 0 5 0 0 0
2 16 3 1 5 0 0 0
2 16 3 2 5 0 0 0
2 16 3 3 5 0 0 0
2 16 3 4 5 0 0 0
2 16 3 5 5 0 0 0
2 16 3 6 5 0 0 0
2 16 3 7 5 0 0 0
2 16 3 8 5 0 0 0
2 16 3 9 5 0 0 0
2 16 3 10 5 0 0 0
2 16 3 11 5 0 0 0
2 16 3 12 5 0 0 0
2 16 3 13 5 0 0 0
2 16 3 14 5 0 0 0
2 16 3 15 5 0 0 0
2 16 4 0 6 0 0 0
2 16 4 1 6 0 0 0
2 16 4 2 6 0 0 0
2 16 4 3 6 0 0 0
2 16 4 4 6 0 0 0
2 16 4 5 6 0 0 0
2 16 4 6 6 0 0 0
2 16 4 7 6 0 0 0
2 16 4 8 6 0 0 0
2 16 4 9 6 0 0 0
2 16 4 10 6 0 0 0
2 16 4 11 6 0 0 0
2 16 4 12 6 0 0 0
2 16 4 13 6 0 0 0
2 16 4 14 6 0 0 0
2 16 4 15 6 0 0 1
3 0 0 0 4 0 1 0
3 0 0 1 4 0 0 0
3 0 0 2 4 0 0 0
3 0 0 3 4 0 0 0
3 0 0 4 4 0 0 0
3 0 0 5 4 0 0 0
3 0 0 6 4 0 0 0
3 0 0 7 4 0 0 0
3 0 0 8 4 0 0 0
3 0 0 9 4 0 0 0
3 0 0 10 4 0 0 0
3 0 0 11 4 0 0 0
3 0 0 12 4 0 0 0
3 0 0 13 4 0 0 0
3 0 0 14 4 0 0 0
3 0 0 15 4 0 0 0
3 0 1 0 5 0 0 0
3 0 1 1 5 0 0 0
3 0 1 2 5 0 0 0
3 0 1 3 5 0 0 0
3 0 1 4 5 0 0 0
3 0 1 5 5 0 0 0
3 0 1 6 5 0 0 0
3 0 1 7 5 0 0 0
3 0 1 8 5 0 0 0
3 0 1 9 5 0 0 0
3 0 1 10 5 0 0 0
3 0 1 11 5 0 0 0
3 0 1 12 5 0 0 0
3 0 1 13 5 0 0 0
3 0 1 14 5 0 0 0
3 0 1 15 5 0 0 0
3 0 2 0 6 0 0 0
3 0 2 1 6 0 0 0
3 0 2 2 6 0 0 0
3 0 2 3 6 0 0 0
3 0 2 4 6 0 0 0
3 0 2 5 6 0 0 0
3 0 2 6 6 0 0 0
3 0 2 7 6 0 0 0
3 0 2 8 6 0 0 0
3 0 2 9 6 0 0 0
3 0 2 10 6 0 0 0
3 0 2 11 6 0 0 0
3 0 2 12 6 0 0 0
3 0 2 13 6 0 0 0
3 0 2 14 6 0 0 0
3 0 2 15 6 0 0 0
3 0 3 0 7 0 0 0
3 0 3 1 7 0 0 0
3 0 3 2 7 0 0 0
3 0 3 3 7 0 0 0
3 0 3 4 7 0 0 0
3 0 3 5 7 0 0 0
3 0 3 6 7 0 0 0
3 0 3 7 7 0 0 0
3 0 3 8 7 0 0 0
3 0 3 9 7 0 0 0
3 0 3 10 7 0 0 0
3 0 3 11 7 0 0 0
3 0 3 12 7 0 0 0
3 0 3 13 7 0 0 0
3 0 3 14 7 0 0 0
3 0 3 15 7 0 0 0
3 0 4 0 8 0 0 0
3 0 4 1 8 0 0 0
3 0 4 2 8 0 0 0
3 0 4 3 8 0 0 0
3 0 4 4 8 0 0 0
3 0 4 5 8 0 0 0
3 0 4 6 8 0 0 0
3 0 4 7 8 0 0 0
3 0 4 8 8 0 0 0
3 0 4 9 8 0 0 0
3 0 4 10 8 0 0 0
3 0 4 11 8 0 0 0
3 0 4 12 8 0 0 0
3 0 4 13 8 0 0 0
3 0 4 14 8 0 0 0
3 0 4 15 8 0 0 1
3 8 0 0 4 0 1 0
3 8 0 1 4 0 0 0
3 8 0 2 4 0 0 0
3 8 0 3 4 0 0 0
3 8 0 4 4 0 0 0
3 8 0 5 4 0 0 0
3 8 0 6 4 0 0 0
3 8 0 7 4 0 0 0
3 8 0 8 4 0 0 0
3 8 0 9 4 0 0 0
3 8 0 10 4 0 0 0
3 8 0 11 4 0 0 0
3 8 0 12 4 0 0 0
3 8 0 13 4 0 0 0
3 8 0 14 4 0 0 0
3 8 0 15 4 0 0 0
3 8 1 0 5 0 0 0
3 8 1 1 5 0 0 0
3 8 1 2 5 0 0 0
3 8 1 3 5 0 0 0
3 8 1 4 5 0 0 0
3 8 1 5 5 0 0 0
3 8 1 6 5 0 0 0
3 8 1 7 5 0 0 0
3 8 1 8 5 0 0 0
3 8 1 9 5 0 0 0
3 8 1 10 5 0 0 0
3 8 1 11 5 0 0 0
3 8 1 12 5 0 0 0
3 8 1 13 5 0 0 0
3 8 1 14 5 0 0 0
3 8 1 15 5 0 0 0
3 8 2 0 6 0 0 0
3 8 2 1 6 0 0 0
3 8 2 2 6 0 0 0
3 8 2 3 6 0 0 0
3 8 2 4 6 0 0 0
3 8 2 5 6 0 0 0
3 8 2 6 6 0 0 0
3 8 2 7 6 0 0 0
3 8 2 8 6 0 0 0
3 8 2 9 6 0 0 0
3 8 2 10 6 0 0 0
3 8 2 11 6 0 0 0
3 8 2 12 6 0 0 0
3 8 2 13 6 0 0 0
3 8 2 14 6 0 0 0
3 8 2 15 6 0 0 0
3 8 3 0 7 0 0 0
3 8 3 1 7 0 0 0
3 8 3 2 7 0 0 0
3 8 3 3 7 0 0 0
3 8 3 4 7 0 0 0
3 8 3 5 7 0 0 0
3 8 3 6 7 0 0 0
3 8 3 7 7 0 0 0
3 8 3 8 7 0 0 0
3 8 3 9 7 0 0 0
3 8 3 10 7 0 0 0
3 8 3 11 7 0 0 0
3 8 3 12 7 0 0 0
3 8 3 13 7 0 0 0
3 8 3 14 7 0 0 0
3 8 3 15 7 0 0 0
3 8 4 0 8 0 0 0
3 8 4 1 8 0 0 0
3 8 4 2 8 0 0 0
3 8 4 3 8 0 0 0
3 8 4 4 8 0 0 0
3 8 4 5 8 0 0 0
3 8 4 6 8 0 0 0
3 8 4 7 8 0 0 0
3 8 4 8 8 0 0 0
3 8 4 9 8 0 0 0
3 8 4 10 8 0 0 0
3 8 4 11 8 0 0 0
3 8 4 12 8 0 0 0
3 8 4 13 8 0 0 0
3 8 4 14 8 0 0 0
3 8 4 15 8 0 0 1
3 16 0 0 4 0 1 0
3 16 0 1 4 0 0 0
3 16 0 2 4 0 0 0
3 16 0 3 4 0 0 0
3 16 0 4 4 0 0 0
3 16 0 5 4 0 0 0
3 16 0 6 4 0 0 0
3 16 0 7 4 0 0 0
3 16 0 8 4 0 0 0
3 16 0 9 4 0 0 0
3 16 0 10 4 0 0 0
3 16 0 11 4 0 0 0
3 16 0 12 4 0 0 0
3 16 0 13 4 0 0 0
3 16 0 14 4 0 0 0
3 16 0 15 4 0 0 0
3 16 1 0 5 0 0 0
3 16 1 1 5 0 0 0
3 16 1 2 5 0 0 0
3 16 1 3 5 0 0 0
3 16 1 4 5 0 0 0
3 16 1 5 5 0 0 0
3 16 1 6 5 0 0 0
3 16 1 7 5 0 0 0
3 16 1 8 5 0 0 0
3 16 1 9 5 0 0 0
3 16 1 10 5 0 0 0
3 16 1 11 5 0 0 0
3 16 1 12 5 0 0 0
3 16 1 13 5 0 0 0
3 16 1 14 5 0 0 0
3 16 1 15 5 0 0 0
3 16 2 0 6 0 0 0
3 16 2 1 6 0 0 0
3 16 2 2 6 0 0 0
3 16 2 3 6 0 0 0
3 16 2 4 6 0 0 0
3 16 2 5 6 0 0 0
3 16 2 6 6 0 0 0
3 16 2 7 6 0 0 0
3 16 2 8 6 0 0 0
3 16 2 9 6 0 0 0
3 16 2 10 6 0 0 0
3 16 2 11 6 0 0 0
3 16 2 12 6 0 0 0
3 16 2 13 6 0 0 0
3 16 2 14 6 0 0 0
3 16 2 15 6 0 0 0
3 16 3 0 7 0 0 0
3 16 3 1 7 0 0 0
3 16 3 2 7 0 0 0
3 16 3 3 7 0 0 0
3 16 3 4 7 0 0 0
3 16 3 5 7 0 0 0
3 16 3 6 7 0 0 0
3 16 3 7 7 0 0 0
3 16 3 8 7 0 0 0
3 16 3 9 7 0 0 0
3 16 3 10 7 0 0 0
3 16 3 11 7 0 0 0
3 16 3 12 7 0 0 0
3 16 3 13 7 0 0 0
3 16 3 14 7 0 0 0
3 16 3 15 7 0 0 0
3 16 4 0 8 0 0 0
3 16 4 1 8 0 0 0
3 16 4 2 8 0 0 0
3 16 4 3 8 0 0 0
3 16 4 4 8 0 0 0
3 16 4 5 8 0 0 0
3 16 4 6 8 0 0 0
3 16 4 7 8 0 0 0
3 16 4 8 8 0 0 0
3 16 4 9 8 0 0 0
3 16 4 10 8 0 0 0
3 16 4 11 8 0 0 0
3 16 4 12 8 0 0 0
3 16 4 13 8 0 0 0
3 16 4 14 8 0 0 0
3 16 4 15 8 0 0 1
4 0 0 0 6 0 1 0
4 0 0 1 6 0 0 0
4 0 0 2 6 0 0 0
4 0 0 3 6 0 0 0
4 0 0 4 6 0 0 0
4 0 0 5 6 0 0 0
4 0 0 6 6 0 0 0
4 0 0 7 6 0 0 0
4 0 0 8 6 0 0 0
4 0 0 9 6 0 0 0
4 0 0 10 6 0 0 0
4 0 0 11 6 0 0 0
4 0 0 12 6 0 0 0
4 0 0 13 6 0 0 0
4 0 0 14 6 0 0 0
4 0 0 15 6 0 0 0
4 0 1 0 7 0 0 0
4 0 1 1 7 0 0 0
4 0 1 2 7 0 0 0
4 0 1 3 7 0 0 0
4 0 1 4 7 0 0 0
4 0 1 5 7 0 0 0
4 0 1 6 7 0 0 0
4 0 1 7 7 0 0 0
4 0 1 8 7 0 0 0
4 0 1 9 7 0 0 0
4 0 1 10 7 0 0 0
4 0 1 11 7 0 0 0
4 0 1 12 7 0 0 0
4 0 1 13 7 0 0 0
4 0 1 14 7 0 0 0
4 0 1 15 7 0 0 0
4 0 2 0 8 0 0 0
4 0 2 1 8 0 0 0
4 0 2 2 8 0 0 0
4 0 2 3 8 0 0 0
4 0 2 4 8 0 0 0
4 0 2 5 8 0 0 0
4 0 2 6 8 0 0 0
4 0 2 7 8 0 0 0
4 0 2 8 8 0 0 0
4 0 2 9 8 0 0 0
4 0 2 10 8 0 0 0
4 0 2 11 8 0 0 0
4 0 2 12 8 0 0 0
4 0 2 13 8 0 0 0
4 0 2 14 8 0 0 0
4 0 2 15 8 0 0 0
4 0 3 0 9 0 0 0
4 0 3 1 9 0 0 0
4 0 3 2 9 0 0 0
4 0 3 3 9 0 0 0
4 0 3 4 9 0 0 0
4 0 3 5 9 0 0 0
4 0 3 6 9 0 0 0
4 0 3 7 9 0 0 0
4 0 3 8 9 0 0 0
4 0 3 9 9 0 0 0
4 0 3 10 9 0 0 0
4 0 3 11 9 0 0 0
4 0 3 12 9 0 0 0
4 0 3 13 9 0 0 0
4 0 3 14 9 0 0 0
4 0 3 15 9 0 0 0
4 0 4 0 10 0 0 0
4 0 4 1 10 0 0 0
4 0 4 2 10 0 0 0
4 0 4 3 10 0 0 0
4 0 4 4 10 0 0 0
4 0 4 5 10 0 0 0
4 0 4 6 10 0 0 0
4 0 4 7 10 0 0 0
4 0 4 8 10 0 0 0
4 0 4 9 10 0 0 0
4 0 4 10 10 0 0 0
4 0 4 11 10 0 0 0
4 0 4 12 10 0 0 0
4 0 4 13 10 0 0 0
4 0 4 14 10 0 0 0
4 0 4 15 10 0 0 1
4 8 0 0 6 0 1 0
4 8 0 1 6 0 0 0
4 8 0 2 6 0 0 0
4 8 0 3 6 0 0 0
4 8 0 4 6 0 0 0
4 8 0 5 6 0 0 0
4 8 0 6 6 0 0 0
4 8 0 7 6 0 0 0
4 8 0 8 6 0 0 0
4 8 0 9 6 0 0 0
4 8 0 10 6 0 0 0
4 8 0 11 6 0 0 0
4 8 0 12 6 0 0 0
4 8 0 13 6 0 0 0
4 8 0 14 6 0 0 0
4 8 0 15 6 0 0 0
4 8 1 0 7 0 0 0
4 8 1 1 7 0 0 0
4 8 1 2 7 0 0 0
4 8 1 3 7 0 0 0
4 8 1 4 7 0 0 0
4 8 1 5 7 0 0 0
4 8 1 6 7 0 0 0
4 8 1 7 7 0 0 0
4 8 1 8 7 0 0 0
4 8 1 9 7 0 0 0
4 8 1 10 7 0 0 0
4 8 1 11 7 0 0 0
4 8 1 12 7 0 0 0
4 8 1 13 7 0 0 0
4 8 1 14 7 0 0 0
4 8 1 15 7 0 0 0
4 8 2 0 8 0 0 0
4 8 2 1 8 0 0 0
4 8 2 2 8 0 0 0
4 8 2 3 8 0 0 0
4 8 2 4 8 0 0 0
4 8 2 5 8 0 0 0
4 8 2 6 8 0 0 0
4 8 2 7 8 0 0 0
4 8 2 8 8 0 0 0
4 8 2 9 8 0 0 0
4 8 2 10 8 0 0 0
4 8 2 11 8 0 0 0
4 8 2 12 8 0 0 0
4 8 2 13 8 0 0 0
4 8 2 14 8 0 0 0
4 8 2 15 8 0 0 0
4 8 3 0 9 0 0 0
4 8 3 1 9 0 0 0
4 8 3 2 9 0 0 0
4 8 3 3 9 0 0 0
4 8 3 4 9 0 0 0
4 8 3 5 9 0 0 0
4 8 3 6 9 0 0 0
4 8 3 7 9 0 0 0
4 8 3 8 9 0 0 0
4 8 3 9 9 0 0 0
4 8 3 10 9 0 0 0
4 8 3 11 9 0 0 0
4 8 3 12 9 0 0 0
4 8 3 13 9 0 0 0
4 8 3 14 9 0 0 0
4 8 3 15 9 0 0 0
4 8 4 0 10 0 0 0
4 8 4 1 10 0 0 0
4 8 4 2 10 0 0 0
4 8 4 3 10 0 0 0
4 8 4 4 10 0 0 0
4 8 4 5 10 0 0 0
4 8 4 6 10 0 0 0
4 8 4 7 10 0 0 0
4 8 4 8 10 0 0 0
4 8 4 9 10 0 0 0
4 8 4 10 10 0 0 0
4 8 4 11 10 0 0 0
4 8 4 12 10 0 0 0
4 8 4 13 10 0 0 0
4 8 4 14 10 0 0 0
4 8 4 15 10 0 0 1
4 16 0 0 6 0 1 0
4 16 0 1 6 0 0 0
4 16 0 2 6 0 0 0
4 16 0 3 6 0 0 0
4 16 0 4 6 0 0 0
4 16 0 5 6 0 0 0
4 16 0 6 6 0 0 0
4 16 0 7 6 0 0 0
4 16 0 8 6 0 0 0
4 16 0 9 6 0 0 0
4 16 0 10 6 0 0 0
4 16 0 11 6 0 0 0
4 16 0 12 6 0 0 0
4 16 0 13 6 0 0 0
4 16 0 14 6 0 0 0
4 16 0 15 6 0 0 0
4 16 1 0 7 0 0 0
4 16 1 1 7 0 0 0
4 16 1 2 7 0 0 0
4 16 1 3 7 0 0 0
4 16 1 4 7 0 0 0
4 16 1 5 7 0 0 0
4 16 1 6 7 0 0 0
4 16 1 7 7 0 0 0
4 16 1 8 7 0 0 0
4 16 1 9 7 0 0 0
4 16 1 10 7 0 0 0
4 16 1 11 7 0 0 0
4 16 1 12 7 0 0 0
4 16 1 13 7 0 0 0
4 16 1 14 7 0 0 0
4 16 1 15 7 0 0 0
4 16 2 0 8 0 0 0
4 16 2 1 8 0 0 0
4 16 2 2 8 0 0 0
4 16 2 3 8 0 0 0
4 16 2 4 8 0 0 0
4 16 2 5 8 0 0 0
4 16 2 6 8 0 0 0
4 16 2 7 8 0 0 0
4 16 2 8 8 0 0 0
4 16 2 9 8 0 0 0
4 16 2 10 8 0 0 0
4 16 2 11 8 0 0 0
4 16 2 12 8 0 0 0
4 16 2 13 8 0 0 0
4 16 2 14 8 0 0 0
4 16 2 15 8 0 0 0
4 16 3 0 9 0 0 0
4 16 3 1 9 0 0 0
4 16 3 2 9 0 0 0
4 16 3 3 9 0 0 0
4 16 3 4 9 0 0 0
4 16 3 5 9 0 0 0
4 16 3 6 9 0 0 0
4 16 3 7 9 0 0 0
4 16 3 8 9 0 0 0
4 16 3 9 9 0 0 0
4 16 3 10 9 0 0 0
4 16 3 11 9 0 0 0
4 16 3 12 9 0 0 0
4 16 3 13 9 0 0 0
4 16 3 14 9 0 0 0
4 16 3 15 9 0 0 0
4 16 4 0 10 0 0 0
4 16 4 1 10 0 0 0
4 16 4 2 10 0 0 0
4 16 4 3 10 0 0 0
4 16 4 4 10 0 0 0
4 16 4 5 10 0 0 0
4 16 4 6 10 0 0 0
4 16 4 7 10 0 0 0
4 16 4 8 10 0 0 0
4 16 4 9 10 0 0 0
4 16 4 10 10 0 0 0
4 16 4 11 10 0 0 0
4 16 4 12 10 0 0 0
4 16 4 13 10 0 0 0
4 16 4 14 10 0 0 0
4 16 4 15 10 0 0 1
5 0 0 0 8 0 1 0
5 0 0 1 8 0 0 0
5 0 0 2 8 0 0 0
5 0 0 3 8 0 0 0
5 0 0 4 8 0 0 0
5 0 0 5 8 0 0 0
5 0 0 6 8 0 0 0
5 0 0 7 8 0 0 0
5 0 0 8 8 0 0 0
5 0 0 9 8 0 0 0
5 0 0 10 8 0 0 0
5 0 0 11 8 0 0 0
5 0 0 12 8 0 0 0
5 0 0 13 8 0 0 0
5 0 0 14 8 0 0 0
5 0 0 15 8 0 0 0
5 0 1 0 9 0 0 0
5 0 1 1 9 0 0 0
5 0 1 2 9 0 0 0
5 0 1 3 9 0 0 0
5 0 1 4 9 0 0 0
5 0 1 5 9 0 0 0
5 0 1 6 9 0 0 0
5 0 1 7 9 0 0 0
5 0 1 8 9 0 0 0
5 0 1 9 9 0 0 0
5 0 1 10 9 0 0 0
5 0 1 11 9 0 0 0
5 0 1 12 9 0 0 0
5 0 1 13 9 0 0 0
5 0 1 14 9 0 0 0
5 0 1 15 9 0 0 0
5 0 2 0 10 0 0 0
5 0 2 1 10 0 0 0
5 0 2 2 10 0 0 0
5 0 2 3 10 0 0 0
5 0 2 4 10 0 0 0
5 0 2 5 10 0 0 0
5 0 2 6 10 0 0 0
5 0 2 7 10 0 0 0
5 0 2 8 10 0 0 0
5 0 2 9 10 0 0 0
5 0 2 10 10 0 0 0
5 0 2 11 10 0 0 0
5 0 2 12 10 0 0 0
5 0 2 13 10 0 0 0
5 0 2 14 10 0 0 0
5 0 2 15 10 0 0 0
5 0 3 0 11 0 0 0
5 0 3 1 11 0 0 0
5 0 3 2 11 0 0 0
5 0 3 3 11 0 0 0
5 0 3 4 11 0 0 0
5 0 3 5 11 0 0 0
5 0 3 6 11 0 0 0
5 0 3 7 11 0 0 0
5 0 3 8 11 0 0 0
5 0 3 9 11 0 0 0
5 0 3 10 11 0 0 0
5 0 3 11 11 0 0 0
5 0 3 12 11 0 0 0
5 0 3 13 11 0 0 0
5 0 3 14 11 0 0 0
5 0 3 15 11 0 0 0
5 0 4 0 12 0 0 0
5 0 4 1 12 0 0 0
5 0 4 2 12 0 0 0
5 0 4 3 12 0 0 0
5 0 4 4 12 0 0 0
5 0 4 5 12 0 0 0
5 0 4 6 12 0 0 0
5 0 4 7 12 0 0 0
5 0 4 8 12 0 0 0
5 0 4 9 12 0 0 0
5 0 4 10 12 0 0 0
5 0 4 11 12 0 0 0
5 0 4 12 12 0 0 0
5 0 4 13 12 0 0 0
5 0 4 14 12 0 0 0
5 0 4 15 12 0 0 1
5 8 0 0 8 0 1 0
5 8 0 1 8 0 0 0
5 8 0 2 8 0 0 0
5 8 0 3 8 0 0 0
5 8 0 4 8 0 0 0
5 8 0 5 8 0 0 0
5 8 0 6 8 0 0 0
5 8 0 7 8 0 0 0
5 8 0 8 8 0 0 0
5 8 0 9 8 0 0 0
5 8 0 10 8 0 0 0
5 8 0 11 8 0 0 0
5 8 0 12 8 0 0 0
5 8 0 13 8 0 0 0
5 8 0 14 8 0 0 0
5 8 0 15 8 0 0 0
5 8 1 0 9 0 0 0
5 8 1 1 9 0 0 0
5 8 1 2 9 0 0 0
5 8 1 3 9 0 0 0
5 8 1 4 9 0 0 0
5 8 1 5 9 0 0 0
5 8 1 6 9 0 0 0
5 8 1 7 9 0 0 0
5 8 1 8 9 0 0 0
5 8 1 9 9 0 0 0
5 8 1 10 9 0 0 0
5 8 1 11 9 0 0 0
5 8 1 12 9 0 0 0
5 8 1 13 9 0 0 0
5 8 1 14 9 0 0 0
5 8 1 15 9 0 0 0
5 8 2 0 10 0 0 0
5 8 2 1 10 0 0 0
5 8 2 2 10 0 0 0
5 8 2 3 10 0 0 0
5 8 2 4 10 0 0 0
5 8 2 5 10 0 0 0
5 8 2 6 10 0 0 0
5 8 2 7 10 0 0 0
5 8 2 8 10 0 0 0
5 8 2 9 10 0 0 0
5 8 2 10 10 0 0 0
5 8 2 11 10 0 0 0
5 8 2 12 10 0 0 0
5 8 2 13 10 0 0 0
5 8 2 14 10 0 0 0
5 8 2 15 10 0 0 0
5 8 3 0 11 0 0 0
5 8 3 1 11 0 0 0
5 8 3 2 11 0 0 0
5 8 3 3 11 0 0 0
5 8 3 4 11 0 0 0
5 8 3 5 11 0 0 0
5 8 3 6 11 0 0 0
5 8 3 7 11 0 0 0
5 8 3 8 11 0 0 0
5 8 3 9 11 0 0 0
5 8 3 10 11 0 0 0
5 8 3 11 11 0 0 0
5 8 3 12 11 0 0 0
5 8 3 13 11 0 0 0
5 8 3 14 11 0 0 0
5 8 3 15 11 0 0 0
5 8 4 0 12 0 0 0
5 8 4 1 12 0 0 0
5 8 4 2 12 0 0 0
5 8 4 3 12 0 0 0
5 8 4 4 12 0 0 0
5 8 4 5 12 0 0 0
5 8 4 6 12 0 0 0
5 8 4 7 12 0 0 0
5 8 4 8 12 0 0 0
5 8 4 9 12 0 0 0
5 8 4 10 12 0 0 0
5 8 4 11 12 0 0 0
5 8 4 12 12 0 0 0
5 8 4 13 12 0 0 0
5 8 4 14 12 0 0 0
5 8 4 15 12 0 0 1
5 16 0 0 8 0 1 0
5 16 0 1 8 0 0 0
5 16 0 2 8 0 0 0
5 16 0 3 8 0 0 0
5 16 0 4 8 0 0 0
5 16 0 5 8 0 0 0
5 16 0 6 8 0 0 0
5 16 0 7 8 0 0 0
5 16 0 8 8 0 0 0
5 16 0 9 8 0 0 0
5 16 0 10 8 0 0 0
5 16 0 11 8 0 0 0
5 16 0 12 8 0 0 0
5 16 0 13 8 0 0 0
5 16 0 14 8 0 0 0
5 16 0 15 8 0 0 0
5 16 1 0 9 0 0 0
5 16 1 1 9 0 0 0
5 16 1 2 9 0 0 0
5 16 1 3 9 0 0 0
5 16 1 4 9 0 0 0
5 16 1 5 9 0 0 0
5 16 1 6 9 0 0 0
5 16 1 7 9 0 0 0
5 16 1 8 9 0 0 0
5 16 1 9 9 0 0 0
5 16 1 10 9 0 0 0
5 16 1 11 9 0 0 0
5 16 1 12 9 0 0 0
5 16 1 13 9 0 0 0
5 16 1 14 9 0 0 0
5 16 1 15 9 0 0 0
5 16 2 0 10 0 0 0
5 16 2 1 10 0 0 0
5 16 2 2 10 0 0 0
5 16 2 3 10 0 0 0
5 16 2 4 10 0 0 0
5 16 2 5 10 0 0 0
5 16 2 6 10 0 0 0
5 16 2 7 10 0 0 0
5 16 2 8 10 0 0 0
5 16 2 9 10 0 0 0
5 16 2 10 10 0 0 0
5 16 2 11 10 0 0 0
5 16 2 12 10 0 0 0
5 16 2 13 10 0 0 0
5 16 2 14 10 0 0 0
5 16 2 15 10 0 0 0
5 16 3 0 11 0 0 0
5 16 3 1 11 0 0 0
5 16 3 2 11 0 0 0
5 16 3 3 11 0 0 0
5 16 3 4 11 0 0 0
5 16 3 5 11 0 0 0
5 16 3 6 11 0 0 0
5 16 3 7 11 0 0 0
5 16 3 8 11 0 0 0
5 16 3 9 11 0 0 0
5 16 3 10 11 0 0 0
5 16 3 11 11 0 0 0
5 16 3 12 11 0 0 0
5 16 3 13 11 0 0 0
5 16 3 14 11 0 0 0
5 16 3 15 11 0 0 0
5 16 4 0 12 0 0 0
5 16 4 1 12 0 0 0
5 16 4 2 12 0 0 0
5 16 4 3 12 0 0 0
5 16 4 4 12 0 0 0
5 16 4 5 12 0 0 0
5 16 4 6 12 0 0 0
5 16 4 7 12 0 0 0
5 16 4 8 12 0 0 0
5 16 4 9 12 0 0 0
5 16 4 10 12 0 0 0
5 16 4 11 12 0 0 0
5 16 4 12 12 0 0 0
5 16 4 13 12 0 0 0
5 16 4 14 12 0 0 0
5 16 4 15 12 0 0 1
6 0 0 0 10 0 1 0
6 0 0 1 10 0 0 0
6 0 0 2 10 0 0 0
6 0 0 3 10 0 0 0
6 0 0 4 10 0 0 0
6 0 0 5 10 0 0 0
6 0 0 6 10 0 0 0
6 0 0 7 10 0 0 0
6 0 0 8 10 0 0 0
6 0 0 9 10 0 0 0
6 0 0 10 10 0 0 0
6 0 0 11 10 0 0 0
6 0 0 12 10 0 0 0
6 0 0 13 10 0 0 0
6 0 0 14 10 0 0 0
6 0 0 15 10 0 0 0
6 0 1 0 11 0 0 0
6 0 1 1 11 0 0 0
6 0 1 2 11 0 0 0
6 0 1 3 11 0 0 0
6 0 1 4 11 0 0 0
6 0 1 5 11 0 0 0
6 0 1 6 11 0 0 0
6 0 1 7 11 0 0 0
6 0 1 8 11 0 0 0
6 0 1 9 11 0 0 0
6 0 1 10 11 0 0 0
6 0 1 11 11 0 0 0
6 0 1 12 11 0 0 0
6 0 1 13 11 0 0 0
6 0 1 14 11 0 0 0
6 0 1 15 11 0 0 0
6 0 2 0 12 0 0 0
6 0 2 1 12 0 0 0
6 0 2 2 12 0 0 0
6 0 2 3 12 0 0 0
6 0 2 4 12 0 0 0
6 0 2 5 12 0 0 0
6 0 2 6 12 0 0 0
6 0 2 7 12 0 0 0
6 0 2 8 12 0 0 0
6 0 2 9 12 0 0 0
6 0 2 10 12 0 0 0
6 0 2 11 12 0 0 0
6 0 2 12 12 0 0 0
6 0 2 13 12 0 0 0
6 0 2 14 12 0 0 0
6 0 2 15 12 0 0 0
6 0 3 0 13 0 0 0
6 0 3 1 13 0 0 0
6 0 3 2 13 0 0 0
6 0 3 3 13 0 0 0
6 0 3 4 13 0 0 0
6 0 3 5 13 0 0 0
6 0 3 6 13 0 0 0
6 0 3 7 13 0 0 0
6 0 3 8 13 0 0 0
6 0 3 9 13 0 0 0
6 0 3 10 13 0 0 0
6 0 3 11 13 0 0 0
6 0 3 12 13 0 0 0
6 0 3 13 13 0 0 0
6 0 3 14 13 0 0 0
6 0 3 15 13 0 0 0
6 0 4 0 14 0 0 0
6 0 4 1 14 0 0 0
6 0 4 2 14 0 0 0
6 0 4 3 14 0 0 0
6 0 4 4 14 0 0 0
6 0 4 5 14 0 0 0
6 0 4 6 14 0 0 0
6 0 4 7 14 0 0 0
6 0 4 8 14 0 0 0
6 0 4 9 14 0 0 0
6 0 4 10 14 0 0 0
6 0 4 11 14 0 0 0
6 0 4 12 14 0 0 0
6 0 4 13 14 0 0 0
6 0 4 14 14 0 0 0
6 0 4 15 14 0 0 1
6 8 0 0 10 0 1 0
6 8 0 1 10 0 0 0
6 8 0 2 10 0 0 0
6 8 0 3 10 0 0 0
6 8 0 4 10 0 0 0
6 8 0 5 10 0 0 0
6 8 0 6 10 0 0 0
6 8 0 7 10 0 0 0
6 8 0 8 10 0 0 0
6 8 0 9 10 0 0 0
6 8 0 10 10 0 0 0
6 8 0 11 10 0 0 0
6 8 0 12 10 0 0 0
6 8 0 13 10 0 0 0
6 8 0 14 10 0 0 0
6 8 0 15 10 0 0 0
6 8 1 0 11 0 0 0
6 8 1 1 11 0 0 0
6 8 1 2 11 0 0 0
6 8 1 3 11 0 0 0
6 8 1 4 11 0 0 0
6 8 1 5 11 0 0 0
6 8 1 6 11 0 0 0
6 8 1 7 11 0 0 0
6 8 1 8 11 0 0 0
6 8 1 9 11 0 0 0
6 8 1 10 11 0 0 0
6 8 1 11 11 0 0 0
6 8 1 12 11 0 0 0
6 8 1 13 11 0 0 0
6 8 1 14 11 0 0 0
6 8 1 15 11 0 0 0
6 8 2 0 12 0 0 0
6 8 2 1 12 0 0 0
6 8 2 2 12 0 0 0
6 8 2 3 12 0 0 0
6 8 2 4 12 0 0 0
6 8 2 5 12 0 0 0
6 8 2 6 12 0 0 0
6 8 2 7 12 0 0 0
6 8 2 8 12 0 0 0
6 8 2 9 12 0 0 0
6 8 2 10 12 0 0 0
6 8 2 11 12 0 0 0
6 8 2 12 12 0 0 0
6 8 2 13 12 0 0 0
6 8 2 14 12 0 0 0
6 8 2 15 12 0 0 0
6 8 3 0 13 0 0 0
6 8 3 1 13 0 0 0
6 8 3 2 13 0 0 0
6 8 3 3 13 0 0 0
6 8 3 4 13 0 0 0
6 8 3 5 13 0 0 0
6 8 3 6 13 0 0 0
6 8 3 7 13 0 0 0
6 8 3 8 13 0 0 0
6 8 3 9 13 0 0 0
6 8 3 10 13 0 0 0
6 8 3 11 13 0 0 0
6 8 3 12 13 0 0 0
6 8 3 13 13 0 0 0
6 8 3 14 13 0 0 0
6 8 3 15 13 0 0 0
6 8 4 0 14 0 0 0
6 8 4 1 14 0 0 0
6 8 4 2 14 0 0 0
6 8 4 3 14 0 0 0
6 8 4 4 14 0 0 0
6 8 4 5 14 0 0 0
6 8 4 6 14 0 0 0
6 8 4 7 14 0 0 0
6 8 4 8 14 0 0 0
6 8 4 9 14 0 0 0
6 8 4 10 14 0 0 0
6 8 4 11 14 0 0 0
6 8 4 12 14 0 0 0
6 8 4 13 14 0 0 0
6 8 4 14 14 0 0 0
6 8 4 15 14 0 0 1
6 16 0 0 10 0 1 0
6 16 0 1 10 0 0 0
6 16 0 2 10 0 0 0
6 16 0 3 10 0 0 0
6 16 0 4 10 0 0 0
6 16 0 5 10 0 0 0
6 16 0 6 10 0 0 0
6 16 0 7 10 0 0 0
6 16 0 8 10 0 0 0
6 16 0 9 10 0 0 0
6 16 0 10 10 0 0 0
6 16 0 11 10 0 0 0
6 16 0 12 10 0 0 0
6 16 0 13 10 0 0 0
6 16 0 14 10 0 0 0
6 16 0 15 10 0 0 0
6 16 1 0 11 0 0 0
6 16 1 1 11 0 0 0
6 16 1 2 11 0 0 0
6 16 1 3 11 0 0 0
6 16 1 4 11 0 0 0
6 16 1 5 11 0 0 0
6 16 1 6 11 0 0 0
6 16 1 7 11 0 0 0
6 16 1 8 11 0 0 0
6 16 1 9 11 0 0 0
6 16 1 10 11 0 0 0
6 16 1 11 11 0 0 0
6 16 1 12 11 0 0 0
6 16 1 13 11 0 0 0
6 16 1 14 11 0 0 0
6 16 1 15 11 0 0 0
6 16 2 0 12 0 0 0
6 16 2 1 12 0 0 0
6 16 2 2 12 0 0 0
6 16 2 3 12 0 0 0
6 16 2 4 12 0 0 0
6 16 2 5 12 0 0 0
6 16 2 6 12 0 0 0
6 16 2 7 12 0 0 0
6 16 2 8 12 0 0 0
6 16 2 9 12 0 0 0
6 16 2 10 12 0 0 0
6 16 2 11 12 0 0 0
6 16 2 12 12 0 0 0
6 16 2 13 12 0 0 0
6 16 2 14 12 0 0 0
6 16 2 15 12 0 0 0
6 16 3 0 13 0 0 0
6 16 3 1 13 0 0 0
6 16 3 2 13 0 0 0
6 16 3 3 13 0 0 0
6 16 3 4 13 0 0 0
6 16 3 5 13 0 0 0
6 16 3 6 13 0 0 0
6 16 3 7 13 0 0 0
6 16 3 8 13 0 0 0
6 16 3 9 13 0 0 0
6 16 3 10 13 0 0 0
6 16 3 11 13 0 0 0
6 16 3 12 13 0 0 0
6 16 3 13 13 0 0 0
6 16 3 14 13 0 0 0
6 16 3 15 13 0 0 0
6 16 4 0 14 0 0 0
6 16 4 1 14 0 0 0
6 16 4 2 14 0 0 0
6 16 4 3 14 0 0 0
6 16 4 4 14 0 0 0
6 16 4 5 14 0 0 0
6 16 4 6 14 0 0 0
6 16 4 7 14 0 0 0
6 16 4 8 14 0 0 0
6 16 4 9 14 0 0 0
6 16 4 10 14 0 0 0
6 16 4 11 14 0 0 0
6 16 4 12 14 0 0 0
6 16 4 13 14 0 0 0
6 16 4 14 14 0 0 0
6 16 4 15 14 0 0 1
7 0 0 0 12 0 1 0
7 0 0 1 12 0 0 0
7 0 0 2 12 0 0 0
7 0 0 3 12 0 0 0
7 0 0 4 12 0 0 0
7 0 0 5 12 0 0 0
7 0 0 6 12 0 0 0
7 0 0 7 12 0 0 0
7 0 0 8 12 0 0 0
7 0 0 9 12 0 0 0
7 0 0 10 12 0 0 0
7 0 0 11 12 0 0 0
7 0 0 12 12 0 0 0
7 0 0 13 12 0 0 0
7 0 0 14 12 0 0 0
7 0 0 15 12 0 0 0
7 0 1 0 13 0 0 0
7 0 1 1 13 0 0 0
7 0 1 2 13 0 0 0
7 0 1 3 13 0 0 0
7 0 1 4 13 0 0 0
7 0 1 5 13 0 0 0
7 0 1 6 13 0 0 0
7 0 1 7 13 0 0 0
7 0 1 8 13 0 0 0
7 0 1 9 13 0 0 0
7 0 1 10 13 0 0 0
7 0 1 11 13 0 0 0
7 0 1 12 13 0 0 0
7 0 1 13 13 0 0 0
7 0 1 14 13 0 0 0
7 0 1 15 13 0 0 0
7 0 2 0 14 0 0 0
7 0 2 1 14 0 0 0
7 0 2 2 14 0 0 0
7 0 2 3 14 0 0 0
7 0 2 4 14 0 0 0
7 0 2 5 14 0 0 0
7 0 2 6 14 0 0 0
7 0 2 7 14 0 0 0
7 0 2 8 14 0 0 0
7 0 2 9 14 0 0 0
7 0 2 10 14 0 0 0
7 0 2 11 14 0 0 0
7 0 2 12 14 0 0 0
7 0 2 13 14 0 0 0
7 0 2 14 14 0 0 0
7 0 2 15 14 0 0 0
7 0 3 0 15 0 0 0
7 0 3 1 15 0 0 0
7 0 3 2 15 0 0 0
7 0 3 3 15 0 0 0
7 0 3 4 15 0 0 0
7 0 3 5 15 0 0 0
7 0 3 6 15 0 0 0
7 0 3 7 15 0 0 0
7 0 3 8 15 0 0 0
7 0 3 9 15 0 0 0
7 0 3 10 15 0 0 0
7 0 3 11 15 0 0 0
7 0 3 12 15 0 0 0
7 0 3 13 15 0 0 0
7 0 3 14 15 0 0 0
7 0 3 15 15 0 0 0
7 0 4 0 16 0 0 0
7 0 4 1 16 0 0 0
7 0 4 2 16 0 0 0
7 0 4 3 16 0 0 0
7 0 4 4 16 0 0 0
7 0 4 5 16 0 0 0
7 0 4 6 16 0 0 0
7 0 4 7 16 0 0 0
7 0 4 8 16 0 0 0
7 0 4 9 16 0 0 0
7 0 4 10 16 0 0 0
7 0 4 11 16 0 0 0
7 0 4 12 16 0 0 0
7 0 4 13 16 0 0 0
7 0 4 14 16 0 0 0
7 0 4 15 16 0 0 1
7 8 0 0 12 0 1 0
7 8 0 1 12 0 0 0
7 8 0 2 12 0 0 0
7 8 0 3 12 0 0 0
7 8 0 4 12 0 0 0
7 8 0 5 12 0 0 0
7 8 0 6 12 0 0 0
7 8 0 7 12 0 0 0
7 8 0 8 12 0 0 0
7 8 0 9 12 0 0 0
7 8 0 10 12 0 0 0
7 8 0 11 12 0 0 0
7 8 0 12 12 0 0 0
7 8 0 13 12 0 0 0
7 8 0 14 12 0 0 0
7 8 0 15 12 0 0 0
7 8 1 0 13 0 0 0
7 8 1 1 13 0 0 0
7 8 1 2 13 0 0 0
7 8 1 3 13 0 0 0
7 8 1 4 13 0 0 0
7 8 1 5 13 0 0 0
7 8 1 6 13 0 0 0
7 8 1 7 13 0 0 0
7 8 1 8 13 0 0 0
7 8 1 9 13 0 0 0
7 8 1 10 13 0 0 0
7 8 1 11 13 0 0 0
7 8 1 12 13 0 0 0
7 8 1 13 13 0 0 0
7 8 1 14 13 0 0 0
7 8 1 15 13 0 0 0
7 8 2 0 14 0 0 0
7 8 2 1 14 0 0 0
7 8 2 2 14 0 0 0
7 8 2 3 14 0 0 0
7 8 2 4 14 0 0 0
7 8 2 5 14 0 0 0
7 8 2 6 14 0 0 0
7 8 2 7 14 0 0 0
7 8 2 8 14 0 0 0
7 8 2 9 14 0 0 0
7 8 2 10 14 0 0 0
7 8 2 11 14 0 0 0
7 8 2 12 14 0 0 0
7 8 2 13 14 0 0 0
7 8 2 14 14 0 0 0
7 8 2 15 14 0 0 0
7 8 3 0 15 0 0 0
7 8 3 1 15 0 0 0
7 8 3 2 15 0 0 0
7 8 3 3 15 0 0 0
7 8 3 4 15 0 0 0
7 8 3 5 15 0 0 0
7 8 3 6 15 0 0 0
7 8 3 7 15 0 0 0
7 8 3 8 15 0 0 0
7 8 3 9 15 0 0 0
7 8 3 10 15 0 0 0
7 8 3 11 15 0 0 0
7 8 3 12 15 0 0 0
7 8 3 13 15 0 0 0
7 8 3 14 15 0 0 0
7 8 3 15 15 0 0 0
7 8 4 0 16 0 0 0
7 8 4 1 16 0 0 0
7 8 4 2 16 0 0 0
7 8 4 3 16 0 0 0
7 8 4 4 16 0 0 0
7 8 4 5 16 0 0 0
7 8 4 6 16 0 0 0
7 8 4 7 16 0 0 0
7 8 4 8 16 0 0 0
7 8 4 9 16 0 0 0
7 8 4 10 16 0 0 0
7 8 4 11 16 0 0 0
7 8 4 12 16 0 0 0
7 8 4 13 16 0 0 0
7 8 4 14 16 0 0 0
7 8 4 15 16 0 0 1
7 16 0 0 12 0 1 0
7 16 0 1 12 0 0 0
7 16 0 2 12 0 0 0
7 16 0 3 12 0 0 0
7 16 0 4 12 0 0 0
7 16 0 5 12 0 0 0
7 16 0 6 12 0 0 0
7 16 0 7 12 0 0 0
7 16 0 8 12 0 0 0
7 16 0 9 12 0 0 0
7 16 0 10 12 0 0 0
7 16 0 11 12 0 0 0
7 16 0 12 12 0 0 0
7 16 0 13 12 0 0 0
7 16 0 14 12 0 0 0
7 16 0 15 12 0 0 0
7 16 1 0 13 0 0 0
7 16 1 1 13 0 0 0
7 16 1 2 13 0 0 0
7 16 1 3 13 0 0 0
7 16 1 4 13 0 0 0
7 16 1 5 13 0 0 0
7 16 1 6 13 0 0 0
7 16 1 7 13 0 0 0
7 16 1 8 13 0 0 0
7 16 1 9 13 0 0 0
7 16 1 10 13 0 0 0
7 16 1 11 13 0 0 0
7 16 1 12 13 0 0 0
7 16 1 13 13 0 0 0
7 16 1 14 13 0 0 0
7 16 1 15 13 0 0 0
7 16 2 0 14 0 0 0
7 16 2 1 14 0 0 0
7 16 2 2 14 0 0 0
7 16 2 3 14 0 0 0
7 16 2 4 14 0 0 0
7 16 2 5 14 0 0 0
7 16 2 6 14 0 0 0
7 16 2 7 14 0 0 0
7 16 2 8 14 0 0 0
7 16 2 9 14 0 0 0
7 16 2 10 14 0 0 0
7 16 2 11 14 0 0 0
7 16 2 12 14 0 0 0
7 16 2 13 14 0 0 0
7 16 2 14 14 0 0 0
7 16 2 15 14 0 0 0
7 16 3 0 15 0 0 0
7 16 3 1 15 0 0 0
7 16 3 2 15 0 0 0
7 16 3 3 15 0 0 0
7 16 3 4 15 0 0 0
7 16 3 5 15 0 0 0
7 16 3 6 15 0 0 0
7 16 3 7 15 0 0 0
7 16 3 8 15 0 0 0
7 16 3 9 15 0 0 0
7 16 3 10 15 0 0 0
7 16 3 11 15 0 0 0
7 16 3 12 15 0 0 0
7 16 3 13 15 0 0 0
7 16 3 14 15 0 0 0
7 16 3 15 15 0 0 0
7 16 4 0 16 0 0 0
7 16 4 1 16 0 0 0
7 16 4 2 16 0 0 0
7 16 4 3 16 0 0 0
7 16 4 4 16 0 0 0
7 16 4 5 16 0 0 0
7 16 4 6 16 0 0 0
7 16 4 7 16 0 0 0
7 16 4 8 16 0 0 0
7 16 4 9 16 0 0 0
7 16 4 10 16 0 0 0
7 16 4 11 16 0 0 0
7 16 4 12 16 0 0 0
7 16 4 13 16 0 0 0
7 16 4 14 16 0 0 0
7 16 4 15 16 0 0 1
8 0 0 0 14 0 1 0
8 0 0 1 14 0 0 0
8 0 0 2 14 0 0 0
8 0 0 3 14 0 0 0
8 0 0 4 14 0 0 0
8 0 0 5 14 0 0 0
8 0 0 6 14 0 0 0
8 0 0 7 14 0 0 0
8 0 0 8 14 0 0 0
8 0 0 9 14 0 0 0
8 0 0 10 14 0 0 0
8 0 0 11 14 0 0 0
8 0 0 12 14 0 0 0
8 0 0 13 14 0 0 0
8 0 0 14 14 0 0 0
8 0 0 15 14 0 0 0
8 0 1 0 15 0 0 0
8 0 1 1 15 0 0 0
8 0 1 2 15 0 0 0
8 0 1 3 15 0 0 0
8 0 1 4 15 0 0 0
8 0 1 5 15 0 0 0
8 0 1 6 15 0 0 0
8 0 1 7 15 0 0 0
8 0 1 8 15 0 0 0
8 0 1 9 15 0 0 0
8 0 1 10 15 0 0 0
8 0 1 11 15 0 0 0
8 0 1 12 15 0 0 0
8 0 1 13 15 0 0 0
8 0 1 14 15 0 0 0
8 0 1 15 15 0 0 0
8 0 2 0 16 0 0 0
8 0 2 1 16 0 0 0
8 0 2 2 16 0 0 0
8 0 2 3 16 0 0 0
8 0 2 4 16 0 0 0
8 0 2 5 16 0 0 0
8 0 2 6 16 0 0 0
8 0 2 7 16 0 0 0
8 0 2 8 16 0 0 0
8 0 2 9 16 0 0 0
8 0 2 10 16 0 0 0
8 0 2 11 16 0 0 0
8 0 2 12 16 0 0 0
8 0 2 13 16 0 0 0
8 0 2 14 16 0 0 0
8 0 2 15 16 0 0 0
8 0 3 0 17 0 0 0
8 0 3 1 17 0 0 0
8 0 3 2 17 0 0 0
8 0 3 3 17 0 0 0
8 0 3 4 17 0 0 0
8 0 3 5 17 0 0 0
8 0 3 6 17 0 0 0
8 0 3 7 17 0 0 0
8 0 3 8 17 0 0 0
8 0 3 9 17 0 0 0
8 0 3 10 17 0 0 0
8 0 3 11 17 0 0 0
8 0 3 12 17 0 0 0
8 0 3 13 17 0 0 0
8 0 3 14 17 0 0 0
8 0 3 15 17 0 0 0
8 0 4 0 18 0 0 0
8 0 4 1 18 0 0 0
8 0 4 2 18 0 0 0
8 0 4 3 18 0 0 0
8 0 4 4 18 0 0 0
8 0 4 5 18 0 0 0
8 0 4 6 18 0 0 0
8 0 4 7 18 0 0 0
8 0 4 8 18 0 0 0
8 0 4 9 18 0 0 0
8 0 4 10 18 0 0 0
8 0 4 11 18 0 0 0
8 0 4 12 18 0 0 0
8 0 4 13 18 0 0 0
8 0 4 14 18 0 0 0
8 0 4 15 18 0 0 1
8 8 0 0 14 0 1 0
8 8 0 1 14 0 0 0
8 8 0 2 14 0 0 0
8 8 0 3 14 0 0 0
8 8 0 4 14 0 0 0
8 8 0 5 14 0 0 0
8 8 0 6 14 0 0 0
8 8 0 7 14 0 0 0
8 8 0 8 14 0 0 0
8 8 0 9 14 0 0 0
8 8 0 10 14 0 0 0
8 8 0 11 14 0 0 0
8 8 0 12 14 0 0 0
8 8 0 13 14 0 0 0
8 8 0 14 14 0 0 0
8 8 0 15 14 0 0 0
8 8 1 0 15 0 0 0
8 8 1 1 15 0 0 0
8 8 1 2 15 0 0 0
8 8 1 3 15 0 0 0
8 8 1 4 15 0 0 0
8 8 1 5 15 0 0 0
8 8 1 6 15 0 0 0
8 8 1 7 15 0 0 0
8 8 1 8 15 0 0 0
8 8 1 9 15 0 0 0
8 8 1 10 15 0 0 0
8 8 1 11 15 0 0 0
8 8 1 12 15 0 0 0
8 8 1 13 15 0 0 0
8 8 1 14 15 0 0 0
8 8 1 15 15 0 0 0
8 8 2 0 16 0 0 0
8 8 2 1 16 0 0 0
8 8 2 2 16 0 0 0
8 8 2 3 16 0 0 0
8 8 2 4 16 0 0 0
8 8 2 5 16 0 0 0
8 8 2 6 16 0 0 0
8 8 2 7 16 0 0 0
8 8 2 8 16 0 0 0
8 8 2 9 16 0 0 0
8 8 2 10 16 0 0 0
8 8 2 11 16 0 0 0
8 8 2 12 16 0 0 0
8 8 2 13 16 0 0 0
8 8 2 14 16 0 0 0
8 8 2 15 16 0 0 0
8 8 3 0 17 0 0 0
8 8 3 1 17 0 0 0
8 8 3 2 17 0 0 0
8 8 3 3 17 0 0 0
8 8 3 4 17 0 0 0
8 8 3 5 17 0 0 0
8 8 3 6 17 0 0 0
8 8 3 7 17 0 0 0
8 8 3 8 17 0 0 0
8 8 3 9 17 0 0 0
8 8 3 10 17 0 0 0
8 8 3 11 17 0 0 0
8 8 3 12 17 0 0 0
8 8 3 13 17 0 0 0
8 8 3 14 17 0 0 0
8 8 3 15 17 0 0 0
8 8 4 0 18 0 0 0
8 8 4 1 18 0 0 0
8 8 4 2 18 0 0 0
8 8 4 3 18 0 0 0
8 8 4 4 18 0 0 0
8 8 4 5 18 0 0 0
8 8 4 6 18 0 0 0
8 8 4 7 18 0 0 0
8 8 4 8 18 0 0 0
8 8 4 9 18 0 0 0
8 8 4 10 18 0 0 0
8 8 4 11 18 0 0 0
8 8 4 12 18 0 0 0
8 8 4 13 18 0 0 0
8 8 4 14 18 0 0 0
8 8 4 15 18 0 0 1
8 16 0 0 14 0 1 0
8 16 0 1 14 0 0 0
8 16 0 2 14 0 0 0
8 16 0 3 14 0 0 0
8 16 0 4 14 0 0 0
8 16 0 5 14 0 0 0
8 16 0 6 14 0 0 0
8 16 0 7 14 0 0 0
8 16 0 8 14 0 0 0
8 16 0 9 14 0 0 0
8 16 0 10 14 0 0 0
8 16 0 11 14 0 0 0
8 16 0 12 14 0 0 0
8 16 0 13 14 0 0 0
8 16 0 14 14 0 0 0
8 16 0 15 14 0 0 0
8 16 1 0 15 0 0 0
8 16 1 1 15 0 0 0
8 16 1 2 15 0 0 0
8 16 1 3 15 0 0 0
8 16 1 4 15 0 0 0
8 16 1 5 15 0 0 0
8 16 1 6 15 0 0 0
8 16 1 7 15 0 0 0
8 16 1 8 15 0 0 0
8 16 1 9 15 0 0 0
8 16 1 10 15 0 0 0
8 16 1 11 15 0 0 0
8 16 1 12 15 0 0 0
8 16 1 13 15 0 0 0
8 16 1 14 15 0 0 0
8 16 1 15 15 0 0 0
8 16 2 0 16 0 0 0
8 16 2 1 16 0 0 0
8 16 2 2 16 0 0 0
8 16 2 3 16 0 0 0
8 16 2 4 16 0 0 0
8 16 2 5 16 0 0 0
8 16 2 6 16 0 0 0
8 16 2 7 16 0 0 0
8 16 2 8 16 0 0 0
8 16 2 9 16 0 0 0
8 16 2 10 16 0 0 0
8 16 2 11 16 0 0 0
8 16 2 12 16 0 0 0
8 16 2 13 16 0 0 0
8 16 2 14 16 0 0 0
8 16 2 15 16 0 0 0
8 16 3 0 17 0 0 0
8 16 3 1 17 0 0 0
8 16 3 2 17 0 0 0
8 16 3 3 17 0 0 0
8 16 3 4 17 0 0 0
8 16 3 5 17 0 0 0
8 16 3 6 17 0 0 0
8 16 3 7 17 0 0 0
8 16 3 8 17 0 0 0
8 16 3 9 17 0 0 0
8 16 3 10 17 0 0 0
8 16 3 11 17 0 0 0
8 16 3 12 17 0 0 0
8 16 3 13 17 0 0 0
8 16 3 14 17 0 0 0
8 16 3 15 17 0 0 0
8 16 4 0 18 0 0 0
8 16 4 1 18 0 0 0
8 16 4 2 18 0 0 0
8 16 4 3 18 0 0 0
8 16 4 4 18 0 0 0
8 16 4 5 18 0 0 0
8 16 4 6 18 0 0 0
8 16 4 7 18 0 0 0
8 16 4 8 18 0 0 0
8 16 4 9 18 0 0 0
8 16 4 10 18 0 0 0
8 16 4 11 18 0 0 0
8 16 4 12 18 0 0 0
8 16 4 13 18 0 0 0
8 16 4 14 18 0 0 0
8 16 4 15 18 0 0 1
9 0 0 0 16 0 1 0
9 0 0 1 16 0 0 0
9 0 0 2 16 0 0 0
9 0 0 3 16 0 0 0
9 0 0 4 16 0 0 0
9 0 0 5 16 0 0 0
9 0 0 6 16 0 0 0
9 0 0 7 16 0 0 0
9 0 0 8 16 0 0 0
9 0 0 9 16 0 0 0
9 0 0 10 16 0 0 0
9 0 0 11 16 0 0 0
9 0 0 12 16 0 0 0
9 0 0 13 16 0 0 0
9 0 0 14 16 0 0 0
9 0 0 15 16 0 0 0
9 0 1 0 17 0 0 0
9 0 1 1 17 0 0 0
9 0 1 2 17 0 0 0
9 0 1 3 17 0 0 0
9 0 1 4 17 0 0 0
9 0 1 5 17 0 0 0
9 0 1 6 17 0 0 0
9 0 1 7 17 0 0 0
9 0 1 8 17 0 0 0
9 0 1 9 17 0 0 0
9 0 1 10 17 0 0 0
9 0 1 11 17 0 0 0
9 0 1 12 17 0 0 0
9 0 1 13 17 0 0 0
9 0 1 14 17 0 0 0
9 0 1 15 17 0 0 0
9 0 2 0 18 0 0 0
9 0 2 1 18 0 0 0
9 0 2 2 18 0 0 0
9 0 2 3 18 0 0 0
9 0 2 4 18 0 0 0
9 0 2 5 18 0 0 0
9 0 2 6 18 0 0 0
9 0 2 7 18 0 0 0
9 0 2 8 18 0 0 0
9 0 2 9 18 0 0 0
9 0 2 10 18 0 0 0
9 0 2 11 18 0 0 0
9 0 2 12 18 0 0 0
9 0 2 13 18 0 0 0
9 0 2 14 18 0 0 0
9 0 2 15 18 0 0 0
9 0 3 0 19 0 0 0
9 0 3 1 19 0 0 0
9 0 3 2 19 0 0 0
9 0 3 3 19 0 0 0
9 0 3 4 19 0 0 0
9 0 3 5 19 0 0 0
9 0 3 6 19 0 0 0
9 0 3 7 19 0 0 0
9 0 3 8 19 0 0 0
9 0 3 9 19 0 0 0
9 0 3 10 19 0 0 0
9 0 3 11 19 0 0 0
9 0 3 12 19 0 0 0
9 0 3 13 19 0 0 0
9 0 3 14 19 0 0 0
9 0 3 15 19 0 0 0
9 0 4 0 20 0 0 0
9 0 4 1 20 0 0 0
9 0 4 2 20 0 0 0
9 0 4 3 20 0 0 0
9 0 4 4 20 0 0 0
9 0 4 5 20 0 0 0
9 0 4 6 20 0 0 0
9 0 4 7 20 0 0 0
9 0 4 8 20 0 0 0
9 0 4 9 20 0 0 0
9 0 4 10 20 0 0 0
9 0 4 11 20 0 0 0
9 0 4 12 20 0 0 0
9 0 4 13 20 0 0 0
9 0 4 14 20 0 0 0
9 0 4 15 20 0 0 1
9 8 0 0 16 0 1 0
9 8 0 1 16 0 0 0
9 8 0 2 16 0 0 0
9 8 0 3 16 0 0 0
9 8 0 4 16 0 0 0
9 8 0 5 16 0 0 0
9 8 0 6 16 0 0 0
9 8 0 7 16 0 0 0
9 8 0 8 16 0 0 0
9 8 0 9 16 0 0 0
9 8 0 10 16 0 0 0
9 8 0 11 16 0 0 0
9 8 0 12 16 0 0 0
9 8 0 13 16 0 0 0
9 8 0 14 16 0 0 0
9 8 0 15 16 0 0 0
9 8 1 0 17 0 0 0
9 8 1 1 17 0 0 0
9 8 1 2 17 0 0 0
9 8 1 3 17 0 0 0
9 8 1 4 17 0 0 0
9 8 1 5 17 0 0 0
9 8 1 6 17 0 0 0
9 8 1 7 17 0 0 0
9 8 1 8 17 0 0 0
9 8 1 9 17 0 0 0
9 8 1 10 17 0 0 0
9 8 1 11 17 0 0 0
9 8 1 12 17 0 0 0
9 8 1 13 17 0 0 0
9 8 1 14 17 0 0 0
9 8 1 15 17 0 0 0
9 8 2 0 18 0 0 0
9 8 2 1 18 0 0 0
9 8 2 2 18 0 0 0
9 8 2 3 18 0 0 0
9 8 2 4 18 0 0 0
9 8 2 5 18 0 0 0
9 8 2 6 18 0 0 0
9 8 2 7 18 0 0 0
9 8 2 8 18 0 0 0
9 8 2 9 18 0 0 0
9 8 2 10 18 0 0 0
9 8 2 11 18 0 0 0
9 8 2 12 18 0 0 0
9 8 2 13 18 0 0 0
9 8 2 14 18 0 0 0
9 8 2 15 18 0 0 0
9 8 3 0 19 0 0 0
9 8 3 1 19 0 0 0
9 8 3 2 19 0 0 0
9 8 3 3 19 0 0 0
9 8 3 4 19 0 0 0
9 8 3 5 19 0 0 0
9 8 3 6 19 0 0 0
9 8 3 7 19 0 0 0
9 8 3 8 19 0 0 0
9 8 3 9 19 0 0 0
9 8 3 10 19 0 0 0
9 8 3 11 19 0 0 0
9 8 3 12 19 0 0 0
9 8 3 13 19 0 0 0
9 8 3 14 19 0 0 0
9 8 3 15 19 0 0 0
9 8 4 0 20 0 0 0
9 8 4 1 20 0 0 0
9 8 4 2 20 0 0 0
9 8 4 3 20 0 0 0
9 8 4 4 20 0 0 0
9 8 4 5 20 0 0 0
9 8 4 6 20 0 0 0
9 8 4 7 20 0 0 0
9 8 4 8 20 0 0 0
9 8 4 9 20 0 0 0
9 8 4 10 20 0 0 0
9 8 4 11 20 0 0 0
9 8 4 12 20 0 0 0
9 8 4 13 20 0 0 0
9 8 4 14 20 0 0 0
9 8 4 15 20 0 0 1
9 16 0 0 16 0 1 0
9 16 0 1 16 0 0 0
9 16 0 2 16 0 0 0
9 16 0 3 16 0 0 0
9 16 0 4 16 0 0 0
9 16 0 5 16 0 0 0
9 16 0 6 16 0 0 0
9 16 0 7 16 0 0 0
9 16 0 8 16 0 0 0
9 16 0 9 16 0 0 0
9 16 0 10 16 0 0 0
9 16 0 11 16 0 0 0
9 16 0 12 16 0 0 0
9 16 0 13 16 0 0 0
9 16 0 14 16 0 0 0
9 16 0 15 16 0 0 0
9 16 1 0 17 0 0 0
9 16 1 1 17 0 0 0
9 16 1 2 17 0 0 0
9 16 1 3 17 0 0 0
9 16 1 4 17 0 0 0
9 16 1 5 17 0 0 0
9 16 1 6 17 0 0 0
9 16 1 7 17 0 0 0
9 16 1 8 17 0 0 0
9 16 1 9 17 0 0 0
9 16 1 10 17 0 0 0
9 16 1 11 17 0 0 0
9 16 1 12 17 0 0 0
9 16 1 13 17 0 0 0
9 16 1 14 17 0 0 0
9 16 1 15 17 0 0 0
9 16 2 0 18 0 0 0
9 16 2 1 18 0 0 0
9 16 2 2 18 0 0 0
9 16 2 3 18 0 0 0
9 16 2 4 18 0 0 0
9 16 2 5 18 0 0 0
9 16 2 6 18 0 0 0
9 16 2 7 18 0 0 0
9 16 2 8 18 0 0 0
9 16 2 9 18 0 0 0
9 16 2 10 18 0 0 0
9 16 2 11 18 0 0 0
9 16 2 12 18 0 0 0
9 16 2 13 18 0 0 0
9 16 2 14 18 0 0 0
9 16 2 15 18 0 0 0
9 16 3 0 19 0 0 0
9 16 3 1 19 0 0 0
9 16 3 2 19 0 0 0
9 16 3 3 19 0 0 0
9 16 3 4 19 0 0 0
9 16 3 5 19 0 0 0
9 16 3 6 19 0 0 0
9 16 3 7 19 0 0 0
9 16 3 8 19 0 0 0
9 16 3 9 19 0 0 0
9 16 3 10 19 0 0 0
9 16 3 11 19 0 0 0
9 16 3 12 19 0 0 0
9 16 3 13 19 0 0 0
9 16 3 14 19 0 0 0
9 16 3 15 19 0 0 0
9 16 4 0 20 0 0 0
9 16 4 1 20 0 0 0
9 16 4 2 20 0 0 0
9 16 4 3 20 0 0 0
9 16 4 4 20 0 0 0
9 16 4 5 20 0 0 0
9 16 4 6 20 0 0 0
9 16 4 7 20 0 0 0
9 16 4 8 20 0 0 0
9 16 4 9 20 0 0 0
9 16 4 10 20 0 0 0
9 16 4 11 20 0 0 0
9 16 4 12 20 0 0 0
9 16 4 13 20 0 0 0
9 16 4 14 20 0 0 0
9 16 4 15 20 0 0 1
10 0 0 0 18 0 1 0
10 0 0 1 18 0 0 0
10 0 0 2 18 0 0 0
10 0 0 3 18 0 0 0
10 0 0 4 18 0 0 0
10 0 0 5 18 0 0 0
10 0 0 6 18 0 0 0
10 0 0 7 18 0 0 0
10 0 0 8 18 0 0 0
10 0 0 9 18 0 0 0
10 0 0 10 18 0 0 0
10 0 0 11 18 0 0 0
10 0 0 12 18 0 0 0
10 0 0 13 18 0 0 0
10 0 0 14 18 0 0 0
10 0 0 15 18 0 0 0
10 0 1 0 19 0 0 0
10 0 1 1 19 0 0 0
10 0 1 2 19 0 0 0
10 0 1 3 19 0 0 0
10 0 1 4 19 0 0 0
10 0 1 5 19 0 0 0
10 0 1 6 19 0 0 0
10 0 1 7 19 0 0 0
10 0 1 8 19 0 0 0
10 0 1 9 19 0 0 0
10 0 1 10 19 0 0 0
10 0 1 11 19 0 0 0
10 0 1 12 19 0 0 0
10 0 1 13 19 0 0 0
10 0 1 14 19 0 0 0
10 0 1 15 19 0 0 0
10 0 2 0 20 0 0 0
10 0 2 1 20 0 0 0
10 0 2 2 20 0 0 0
10 0 2 3 20 0 0 0
10 0 2 4 20 0 0 0
10 0 2 5 20 0 0 0
10 0 2 6 20 0 0 0
10 0 2 7 20 0 0 0
10 0 2 8 20 0 0 0
10 0 2 9 20 0 0 0
10 0 2 10 20 0 0 0
10 0 2 11 20 0 0 0
10 0 2 12 20 0 0 0
10 0 2 13 20 0 0 0
10 0 2 14 20 0 0 0
10 0 2 15 20 0 0 0
10 0 3 0 21 0 0 0
10 0 3 1 21 0 0 0
10 0 3 2 21 0 0 0
10 0 3 3 21 0 0 0
10 0 3 4 21 0 0 0
10 0 3 5 21 0 0 0
10 0 3 6 21 0 0 0
10 0 3 7 21 0 0 0
10 0 3 8 21 0 0 0
10 0 3 9 21 0 0 0
10 0 3 10 21 0 0 0
10 0 3 11 21 0 0 0
10 0 3 12 21 0 0 0
10 0 3 13 21 0 0 0
10 0 3 14 21 0 0 0
10 0 3 15 21 0 0 0
10 0 4 0 22 0 0 0
10 0 4 1 22 0 0 0
10 0 4 2 22 0 0 0
10 0 4 3 22 0 0 0
10 0 4 4 22 0 0 0
10 0 4 5 22 0 0 0
10 0 4 6 22 0 0 0
10 0 4 7 22 0 0 0
10 0 4 8 22 0 0 0
10 0 4 9 22 0 0 0
10 0 4 10 22 0 0 0
10 0 4 11 22 0 0 0
10 0 4 12 22 0 0 0
10 0 4 13 22 0 0 0
10 0 4 14 22 0 0 0
10 0 4 15 22 0 0 1
10 8 0 0 18 0 1 0
10 8 0 1 18 0 0 0
10 8 0 2 18 0 0 0
10 8 0 3 18 0 0 0
10 8 0 4 18 0 0 0
10 8 0 5 18 0 0 0
10 8 0 6 18 0 0 0
10 8 0 7 18 0 0 0
10 8 0 8 18 0 0 0
10 8 0 9 18 0 0 0
10 8 0 10 18 0 0 0
10 8 0 11 18 0 0 0
10 8 0 12 18 0 0 0
10 8 0 13 18 0 0 0
10 8 0 14 18 0 0 0
10 8 0 15 18 0 0 0
10 8 1 0 19 0 0 0
10 8 1 1 19 0 0 0
10 8 1 2 19 0 0 0
10 8 1 3 19 0 0 0
10 8 1 4 19 0 0 0
10 8 1 5 19 0 0 0
10 8 1 6 19 0 0 0
10 8 1 7 19 0 0 0
10 8 1 8 19 0 0 0
10 8 1 9 19 0 0 0
10 8 1 10 19 0 0 0
10 8 1 11 19 0 0 0
10 8 1 12 19 0 0 0
10 8 1 13 19 0 0 0
10 8 1 14 19 0 0 0
10 8 1 15 19 0 0 0
10 8 2 0 20 0 0 0
10 8 2 1 20 0 0 0
10 8 2 2 20 0 0 0
10 8 2 3 20 0 0 0
10 8 2 4 20 0 0 0
10 8 2 5 20 0 0 0
10 8 2 6 20 0 0 0
10 8 2 7 20 0 0 0
10 8 2 8 20 0 0 0
10 8 2 9 20 0 0 0
10 8 2 10 20 0 0 0
10 8 2 11 20 0 0 0
10 8 2 12 20 0 0 0
10 8 2 13 20 0 0 0
10 8 2 14 20 0 0 0
10 8 2 15 20 0 0 0
10 8 3 0 21 0 0 0
10 8 3 1 21 0 0 0
10 8 3 2 21 0 0 0
10 8 3 3 21 0 0 0
10 8 3 4 21 0 0 0
10 8 3 5 21 0 0 0
10 8 3 6 21 0 0 0
10 8 3 7 21 0 0 0
10 8 3 8 21 0 0 0
10 8 3 9 21 0 0 0
10 8 3 10 21 0 0 0
10 8 3 11 21 0 0 0
10 8 3 12 21 0 0 0
10 8 3 13 21 0 0 0
10 8 3 14 21 0 0 0
10 8 3 15 21 0 0 0
10 8 4 0 22 0 0 0
10 8 4 1 22 0 0 0
10 8 4 2 22 0 0 0
10 8 4 3 22 0 0 0
10 8 4 4 22 0 0 0
10 8 4 5 22 0 0 0
10 8 4 6 22 0 0 0
10 8 4 7 22 0 0 0
10 8 4 8 22 0 0 0
10 8 4 9 22 0 0 0
10 8 4 10 22 0 0 0
10 8 4 11 22 0 0 0
10 8 4 12 22 0 0 0
10 8 4 13 22 0 0 0
10 8 4 14 22 0 0 0
10 8 4 15 22 0 0 1
10 16 0 0 18 0 1 0
10 16 0 1 18 0 0 0
10 16 0 2 18 0 0 0
10 16 0 3 18 0 0 0
10 16 0 4 18 0 0 0
10 16 0 5 18 0 0 0
10 16 0 6 18 0 0 0
10 16 0 7 18 0 0 0
10 16 0 8 18 0 0 0
10 16 0 9 18 0 0 0
10 16 0 10 18 0 0 0
10 16 0 11 18 0 0 0
10 16 0 12 18 0 0 0
10 16 0 13 18 0 0 0
10 16 0 14 18 0 0 0
10 16 0 15 18 0 0 0
10 16 1 0 19 0 0 0
10 16 1 1 19 0 0 0
10 16 1 2 19 0 0 0
10 16 1 3 19 0 0 0
10 16 1 4 19 0 0 0
10 16 1 5 19 0 0 0
10 16 1 6 19 0 0 0
10 16 1 7 19 0 0 0
10 16 1 8 19 0 0 0
10 16 1 9 19 0 0 0
10 16 1 10 19 0 0 0
10 16 1 11 19 0 0 0
10 16 1 12 19 0 0 0
10 16 1 13 19 0 0 0
10 16 1 14 19 0 0 0
10 16 1 15 19 0 0 0
10 16 2 0 20 0 0 0
10 16 2 1 20 0 0 0
10 16 2 2 20 0 0 0
10 16 2 3 20 0 0 0
10 16 2 4 20 0 0 0
10 16 2 5 20 0 0 0
10 16 2 6 20 0 0 0
10 16 2 7 20 0 0 0
10 16 2 8 20 0 0 0
10 16 2 9 20 0 0 0
10 16 2 10 20 0 0 0
10 16 2 11 20 0 0 0
10 16 2 12 20 0 0 0
10 16 2 13 20 0 0 0
10 16 2 14 20 0 0 0
10 16 2 15 20 0 0 0
10 16 3 0 21 0 0 0
10 16 3 1 21 0 0 0
10 16 3 2 21 0 0 0
10 16 3 3 21 0 0 0
10 16 3 4 21 0 0 0
10 16 3 5 21 0 0 0
10 16 3 6 21 0 0 0
10 16 3 7 21 0 0 0
10 16 3 8 21 0 0 0
10 16 3 9 21 0 0 0
10 16 3 10 21 0 0 0
10 16 3 11 21 0 0 0
10 16 3 12 21 0 0 0
10 16 3 13 21 0 0 0
10 16 3 14 21 0 0 0
10 16 3 15 21 0 0 0
10 16 4 0 22 0 0 0
10 16 4 1 22 0 0 0
10 16 4 2 22 0 0 0
10 16 4 3 22 0 0 0
10 16 4 4 22 0 0 0
10 16 4 5 22 0 0 0
10 16 4 6 22 0 0 0
10 16 4 7 22 0 0 0
10 16 4 8 22 0 0 0
10 16 4 9 22 0 0 0
10 16 4 10 22 0 0 0
10 16 4 11 22 0 0 0
10 16 4 12 22 0 0 0
10 16 4 13 22 0 0 0
10 16 4 14 22 0 0 0
10 16 4 15 22 0 0 1
11 0 0 0 20 0 1 0
11 0 0 1 20 0 0 0
11 0 0 2 20 0 0 0
11 0 0 3 20 0 0 0
11 0 0 4 20 0 0 0
11 0 0 5 20 0 0 0
11 0 0 6 20 0 0 0
11 0 0 7 20 0 0 0
11 0 0 8 20 0 0 0
11 0 0 9 20 0 0 0
11 0 0 10 20 0 0 0
11 0 0 11 20 0 0 0
11 0 0 12 20 0 0 0
11 0 0 13 20 0 0 0
11 0 0 14 20 0 0 0
11 0 0 15 20 0 0 0
11 0 1 0 21 0 0 0
11 0 1 1 21 0 0 0
11 0 1 2 21 0 0 0
11 0 1 3 21 0 0 0
11 0 1 4 21 0 0 0
11 0 1 5 21 0 0 0
11 0 1 6 21 0 0 0
11 0 1 7 21 0 0 0
11 0 1 8 21 0 0 0
11 0 1 9 21 0 0 0
11 0 1 10 21 0 0 0
11 0 1 11 21 0 0 0
11 0 1 12 21 0 0 0
11 0 1 13 21 0 0 0
11 0 1 14 21 0 0 0
11 0 1 15 21 0 0 0
11 0 2 0 22 0 0 0
11 0 2 1 22 0 0 0
11 0 2 2 22 0 0 0
11 0 2 3 22 0 0 0
11 0 2 4 22 0 0 0
11 0 2 5 22 0 0 0
11 0 2 6 22 0 0 0
11 0 2 7 22 0 0 0
11 0 2 8 22 0 0 0
11 0 2 9 22 0 0 0
11 0 2 10 22 0 0 0
11 0 2 11 22 0 0 0
11 0 2 12 22 0 0 0
11 0 2 13 22 0 0 0
11 0 2 14 22 0 0 0
11 0 2 15 22 0 0 0
11 0 3 0 23 0 0 0
11 0 3 1 23 0 0 0
11 0 3 2 23 0 0 0
11 0 3 3 23 0 0 0
11 0 3 4 23 0 0 0
11 0 3 5 23 0 0 0
11 0 3 6 23 0 0 0
11 0 3 7 23 0 0 0
11 0 3 8 23 0 0 0
11 0 3 9 23 0 0 0
11 0 3 10 23 0 0 0
11 0 3 11 23 0 0 0
11 0 3 12 23 0 0 0
11 0 3 13 23 0 0 0
11 0 3 14 23 0 0 0
11 0 3 15 23 0 0 0
11 0 4 0 24 0 0 0
11 0 4 1 24 0 0 0
11 0 4 2 24 0 0 0
11 0 4 3 24 0 0 0
11 0 4 4 24 0 0 0
11 0 4 5 24 0 0 0
11 0 4 6 24 0 0 0
11 0 4 7 24 0 0 0
11 0 4 8 24 0 0 0
11 0 4 9 24 0 0 0
11 0 4 10 24 0 0 0
11 0 4 11 24 0 0 0
11 0 4 12 24 0 0 0
11 0 4 13 24 0 0 0
11 0 4 14 24 0 0 0
11 0 4 15 24 0 0 1
11 8 0 0 20 0 1 0
11 8 0 1 20 0 0 0
11 8 0 2 20 0 0 0
11 8 0 3 20 0 0 0
11 8 0 4 20 0 0 0
11 8 0 5 20 0 0 0
11 8 0 6 20 0 0 0
11 8 0 7 20 0 0 0
11 8 0 8 20 0 0 0
11 8 0 9 20 0 0 0
11 8 0 10 20 0 0 0
11 8 0 11 20 0 0 0
11 8 0 12 20 0 0 0
11 8 0 13 20 0 0 0
11 8 0 14 20 0 0 0
11 8 0 15 20 0 0 0
11 8 1 0 21 0 0 0
11 8 1 1 21 0 0 0
11 8 1 2 21 0 0 0
11 8 1 3 21 0 0 0
11 8 1 4 21 0 0 0
11 8 1 5 21 0 0 0
11 8 1 6 21 0 0 0
11 8 1 7 21 0 0 0
11 8 1 8 21 0 0 0
11 8 1 9 21 0 0 0
11 8 1 10 21 0 0 0
11 8 1 11 21 0 0 0
11 8 1 12 21 0 0 0
11 8 1 13 21 0 0 0
11 8 1 14 21 0 0 0
11 8 1 15 21 0 0 0
11 8 2 0 22 0 0 0
11 8 2 1 22 0 0 0
11 8 2 2 22 0 0 0
11 8 2 3 22 0 0 0
11 8 2 4 22 0 0 0
11 8 2 5 22 0 0 0
11 8 2 6 22 0 0 0
11 8 2 7 22 0 0 0
11 8 2 8 22 0 0 0
11 8 2 9 22 0 0 0
11 8 2 10 22 0 0 0
11 8 2 11 22 0 0 0
11 8 2 12 22 0 0 0
11 8 2 13 22 0 0 0
11 8 2 14 22 0 0 0
11 8 2 15 22 0 0 0
11 8 3 0 23 0 0 0
11 8 3 1 23 0 0 0
11 8 3 2 23 0 0 0
11 8 3 3 23 0 0 0
11 8 3 4 23 0 0 0
11 8 3 5 23 0 0 0
11 8 3 6 23 0 0 0
11 8 3 7 23 0 0 0
11 8 3 8 23 0 0 0
11 8 3 9 23 0 0 0
11 8 3 10 23 0 0 0
11 8 3 11 23 0 0 0
11 8 3 12 23 0 0 0
11 8 3 13 23 0 0 0
11 8 3 14 23 0 0 0
11 8 3 15 23 0 0 0
11 8 4 0 24 0 0 0
11 8 4 1 24 0 0 0
11 8 4 2 24 0 0 0
11 8 4 3 24 0 0 0
11 8 4 4 24 0 0 0
11 8 4 5 24 0 0 0
11 8 4 6 24 0 0 0
11 8 4 7 24 0 0 0
11 8 4 8 24 0 0 0
11 8 4 9 24 0 0 0
11 8 4 10 24 0 0 0
11 8 4 11 24 0 0 0
11 8 4 12 24 0 0 0
11 8 4 13 24 0 0 0
11 8 4 14 24 0 0 0
11 8 4 15 24 0 0 1
11 16 0 0 20 0 1 0
11 16 0 1 20 0 0 0
11 16 0 2 20 0 0 0
11 16 0 3 20 0 0 0
11 16 0 4 20 0 0 0
11 16 0 5 20 0 0 0
11 16 0 6 20 0 0 0
11 16 0 7 20 0 0 0
11 16 0 8 20 0 0 0
11 16 0 9 20 0 0 0
11 16 0 10 20 0 0 0
11 16 0 11 20 0 0 0
11 16 0 12 20 0 0 0
11 16 0 13 20 0 0 0
11 16 0 14 20 0 0 0
11 16 0 15 20 0 0 0
11 16 1 0 21 0 0 0
11 16 1 1 21 0 0 0
11 16 1 2 21 0 0 0
11 16 1 3 21 0 0 0
11 16 1 4 21 0 0 0
11 16 1 5 21 0 0 0
11 16 1 6 21 0 0 0
11 16 1 7 21 0 0 0
11 16 1 8 21 0 0 0
11 16 1 9 21 0 0 0
11 16 1 10 21 0 0 0
11 16 1 11 21 0 0 0
11 16 1 12 21 0 0 0
11 16 1 13 21 0 0 0
11 16 1 14 21 0 0 0
11 16 1 15 21 0 0 0
11 16 2 0 22 0 0 0
11 16 2 1 22 0 0 0
11 16 2 2 22 0 0 0
11 16 2 3 22 0 0 0
11 16 2 4 22 0 0 0
11 16 2 5 22 0 0 0
11 16 2 6 22 0 0 0
11 16 2 7 22 0 0 0
11 16 2 8 22 0 0 0
11 16 2 9 22 0 0 0
11 16 2 10 22 0 0 0
11 16 2 11 22 0 0 0
11 16 2 12 22 0 0 0
11 16 2 13 22 0 0 0
11 16 2 14 22 0 0 0
11 16 2 15 22 0 0 0
11 16 3 0 23 0 0 0
11 16 3 1 23 0 0 0
11 16 3 2 23 0 0 0
11 16 3 3 23 0 0 0
11 16 3 4 23 0 0 0
11 16 3 5 23 0 0 0
11 16 3 6 23 0 0 0
11 16 3 7 23 0 0 0
11 16 3 8 23 0 0 0
11 16 3 9 23 0 0 0
11 16 3 10 23 0 0 0
11 16 3 11 23 0 0 0
11 16 3 12 23 0 0 0
11 16 3 13 23 0 0 0
11 16 3 14 23 0 0 0
11 16 3 15 23 0 0 0
11 16 4 0 24 0 0 0
11 16 4 1 24 0 0 0
11 16 4 2 24 0 0 0
11 16 4 3 24 0 0 0
11 16 4 4 24 0 0 0
11 16 4 5 24 0 0 0
11 16 4 6 24 0 0 0
11 16 4 7 24 0 0 0
11 16 4 8 24 0 0 0
11 16 4 9 24 0 0 0
11 16 4 10 24 0 0 0
11 16 4 11 24 0 0 0
11 16 4 12 24 0 0 0
11 16 4 13 24 0 0 0
11 16 4 14 24 0 0 0
11 16 4 15 24 0 0 1
12 0 0 0 22 0 1 0
12 0 0 1 22 0 0 0
12 0 0 2 22 0 0 0
12 0 0 3 22 0 0 0
12 0 0 4 22 0 0 0
12 0 0 5 22 0 0 0
12 0 0 6 22 0 0 0
12 0 0 7 22 0 0 0
12 0 0 8 22 0 0 0
12 0 0 9 22 0 0 0
12 0 0 10 22 0 0 0
12 0 0 11 22 0 0 0
12 0 0 12 22 0 0 0
12 0 0 13 22 0 0 0
12 0 0 14 22 0 0 0
12 0 0 15 22 0 0 0
12 0 1 0 23 0 0 0
12 0 1 1 23 0 0 0
12 0 1 2 23 0 0 0
12 0 1 3 23 0 0 0
12 0 1 4 23 0 0 0
12 0 1 5 23 0 0 0
12 0 1 6 23 0 0 0
12 0 1 7 23 0 0 0
12 0 1 8 23 0 0 0
12 0 1 9 23 0 0 0
12 0 1 10 23 0 0 0
12 0 1 11 23 0 0 0
12 0 1 12 23 0 0 0
12 0 1 13 23 0 0 0
12 0 1 14 23 0 0 0
12 0 1 15 23 0 0 0
12 0 2 0 24 0 0 0
12 0 2 1 24 0 0 0
12 0 2 2 24 0 0 0
12 0 2 3 24 0 0 0
12 0 2 4 24 0 0 0
12 0 2 5 24 0 0 0
12 0 2 6 24 0 0 0
12 0 2 7 24 0 0 0
12 0 2 8 24 0 0 0
12 0 2 9 24 0 0 0
12 0 2 10 24 0 0 0
12 0 2 11 24 0 0 0
12 0 2 12 24 0 0 0
12 0 2 13 24 0 0 0
12 0 2 14 24 0 0 0
12 0 2 15 24 0 0 0
12 0 3 0 25 0 0 0
12 0 3 1 25 0 0 0
12 0 3 2 25 0 0 0
12 0 3 3 25 0 0 0
12 0 3 4 25 0 0 0
12 0 3 5 25 0 0 0
12 0 3 6 25 0 0 0
12 0 3 7 25 0 0 0
12 0 3 8 25 0 0 0
12 0 3 9 25 0 0 0
12 0 3 10 25 0 0 0
12 0 3 11 25 0 0 0
12 0 3 12 25 0 0 0
12 0 3 13 25 0 0 0
12 0 3 14 25 0 0 0
12 0 3 15 25 0 0 0
12 0 4 0 26 0 0 0
12 0 4 1 26 0 0 0
12 0 4 2 26 0 0 0
12 0 4 3 26 0 0 0
12 0 4 4 26 0 0 0
12 0 4 5 26 0 0 0
12 0 4 6 26 0 0 0
12 0 4 7 26 0 0 0
12 0 4 8 26 0 0 0
12 0 4 9 26 0 0 0
12 0 4 10 26 0 0 0
12 0 4 11 26 0 0 0
12 0 4 12 26 0 0 0
12 0 4 13 26 0 0 0
12 0 4 14 26 0 0 0
12 0 4 15 26 0 0 1
12 8 0 0 22 0 1 0
12 8 0 1 22 0 0 0
12 8 0 2 22 0 0 0
12 8 0 3 22 0 0 0
12 8 0 4 22 0 0 0
12 8 0 5 22 0 0 0
12 8 0 6 22 0 0 0
12 8 0 7 22 0 0 0
12 8 0 8 22 0 0 0
12 8 0 9 22 0 0 0
12 8 0 10 22 0 0 0
12 8 0 11 22 0 0 0
12 8 0 12 22 0 0 0
12 8 0 13 22 0 0 0
12 8 0 14 22 0 0 0
12 8 0 15 22 0 0 0
12 8 1 0 23 0 0 0
12 8 1 1 23 0 0 0
12 8 1 2 23 0 0 0
12 8 1 3 23 0 0 0
12 8 1 4 23 0 0 0
12 8 1 5 23 0 0 0
12 8 1 6 23 0 0 0
12 8 1 7 23 0 0 0
12 8 1 8 23 0 0 0
12 8 1 9 23 0 0 0
12 8 1 10 23 0 0 0
12 8 1 11 23 0 0 0
12 8 1 12 23 0 0 0
12 8 1 13 23 0 0 0
12 8 1 14 23 0 0 0
12 8 1 15 23 0 0 0
12 8 2 0 24 0 0 0
12 8 2 1 24 0 0 0
12 8 2 2 24 0 0 0
12 8 2 3 24 0 0 0
12 8 2 4 24 0 0 0
12 8 2 5 24 0 0 0
12 8 2 6 24 0 0 0
12 8 2 7 24 0 0 0
12 8 2 8 24 0 0 0
12 8 2 9 24 0 0 0
12 8 2 10 24 0 0 0
12 8 2 11 24 0 0 0
12 8 2 12 24 0 0 0
12 8 2 13 24 0 0 0
12 8 2 14 24 0 0 0
12 8 2 15 24 0 0 0
12 8 3 0 25 0 0 0
12 8 3 1 25 0 0 0
12 8 3 2 25 0 0 0
12 8 3 3 25 0 0 0
12 8 3 4 25 0 0 0
12 8 3 5 25 0 0 0
12 8 3 6 25 0 0 0
12 8 3 7 25 0 0 0
12 8 3 8 25 0 0 0
12 8 3 9 25 0 0 0
12 8 3 10 25 0 0 0
12 8 3 11 25 0 0 0
12 8 3 12 25 0 0 0
12 8 3 13 25 0 0 0
12 8 3 14 25 0 0 0
12 8 3 15 25 0 0 0
12 8 4 0 26 0 0 0
12 8 4 1 26 0 0 0
12 8 4 2 26 0 0 0
12 8 4 3 26 0 0 0
12 8 4 4 26 0 0 0
12 8 4 5 26 0 0 0
12 8 4 6 26 0 0 0
12 8 4 7 26 0 0 0
12 8 4 8 26 0 0 0
12 8 4 9 26 0 0 0
12 8 4 10 26 0 0 0
12 8 4 11 26 0 0 0
12 8 4 12 26 0 0 0
12 8 4 13 26 0 0 0
12 8 4 14 26 0 0 0
12 8 4 15 26 0 0 1
12 16 0 0 22 0 1 0
12 16 0 1 22 0 0 0
12 16 0 2 22 0 0 0
12 16 0 3 22 0 0 0
12 16 0 4 22 0 0 0
12 16 0 5 22 0 0 0
12 16 0 6 22 0 0 0
12 16 0 7 22 0 0 0
12 16 0 8 22 0 0 0
12 16 0 9 22 0 0 0
12 16 0 10 22 0 0 0
12 16 0 11 22 0 0 0
12 16 0 12 22 0 0 0
12 16 0 13 22 0 0 0
12 16 0 14 22 0 0 0
12 16 0 15 22 0 0 0
12 16 1 0 23 0 0 0
12 16 1 1 23 0 0 0
12 16 1 2 23 0 0 0
12 16 1 3 23 0 0 0
12 16 1 4 23 0 0 0
12 16 1 5 23 0 0 0
12 16 1 6 23 0 0 0
12 16 1 7 23 0 0 0
12 16 1 8 23 0 0 0
12 16 1 9 23 0 0 0
12 16 1 10 23 0 0 0
12 16 1 11 23 0 0 0
12 16 1 12 23 0 0 0
12 16 1 13 23 0 0 0
12 16 1 14 23 0 0 0
12 16 1 15 23 0 0 0
12 16 2 0 24 0 0 0
12 16 2 1 24 0 0 0
12 16 2 2 24 0 0 0
12 16 2 3 24 0 0 0
12 16 2 4 24 0 0 0
12 16 2 5 24 0 0 0
12 16 2 6 24 0 0 0
12 16 2 7 24 0 0 0
12 16 2 8 24 0 0 0
12 16 2 9 24 0 0 0
12 16 2 10 24 0 0 0
12 16 2 11 24 0 0 0
12 16 2 12 24 0 0 0
12 16 2 13 24 0 0 0
12 16 2 14 24 0 0 0
12 16 2 15 24 0 0 0
12 16 3 0 25 0 0 0
12 16 3 1 25 0 0 0
12 16 3 2 25 0 0 0
12 16 3 3 25 0 0 0
12 16 3 4 25 0 0 0
12 16 3 5 25 0 0 0
12 16 3 6 25 0 0 0
12 16 3 7 25 0 0 0
12 16 3 8 25 0 0 0
12 16 3 9 25 0 0 0
12 16 3 10 25 0 0 0
12 16 3 11 25 0 0 0
12 16 3 12 25 0 0 0
12 16 3 13 25 0 0 0
12 16 3 14 25 0 0 0
12 16 3 15 25 0 0 0
12 16 4 0 26 0 0 0
12 16 4 1 26 0 0 0
12 16 4 2 26 0 0 0
12 16 4 3 26 0 0 0
12 16 4 4 26 0 0 0
12 16 4 5 26 0 0 0
12 16 4 6 26 0 0 0
12 16 4 7 26 0 0 0
12 16 4 8 26 0 0 0
12 16 4 9 26 0 0 0
12 16 4 10 26 0 0 0
12 16 4 11 26 0 0 0
12 16 4 12 26 0 0 0
12 16 4 13 26 0 0 0
12 16 4 14 26 0 0 0
12 16 4 15 26 0 0 1
13 0 0 0 24 0 1 0
13 0 0 1 24 0 0 0
13 0 0 2 24 0 0 0
13 0 0 3 24 0 0 0
13 0 0 4 24 0 0 0
13 0 0 5 24 0 0 0
13 0 0 6 24 0 0 0
13 0 0 7 24 0 0 0
13 0 0 8 24 0 0 0
13 0 0 9 24 0 0 0
13 0 0 10 24 0 0 0
13 0 0 11 24 0 0 0
13 0 0 12 24 0 0 0
13 0 0 13 24 0 0 0
13 0 0 14 24 0 0 0
13 0 0 15 24 0 0 0
13 0 1 0 25 0 0 0
13 0 1 1 25 0 0 0
13 0 1 2 25 0 0 0
13 0 1 3 25 0 0 0
13 0 1 4 25 0 0 0
13 0 1 5 25 0 0 0
13 0 1 6 25 0 0 0
13 0 1 7 25 0 0 0
13 0 1 8 25 0 0 0
13 0 1 9 25 0 0 0
13 0 1 10 25 0 0 0
13 0 1 11 25 0 0 0
13 0 1 12 25 0 0 0
13 0 1 13 25 0 0 0
13 0 1 14 25 0 0 0
13 0 1 15 25 0 0 0
13 0 2 0 26 0 0 0
13 0 2 1 26 0 0 0
13 0 2 2 26 0 0 0
13 0 2 3 26 0 0 0
13 0 2 4 26 0 0 0
13 0 2 5 26 0 0 0
13 0 2 6 26 0 0 0
13 0 2 7 26 0 0 0
13 0 2 8 26 0 0 0
13 0 2 9 26 0 0 0
13 0 2 10 26 0 0 0
13 0 2 11 26 0 0 0
13 0 2 12 26 0 0 0
13 0 2 13 26 0 0 0
13 0 2 14 26 0 0 0
13 0 2 15 26 0 0 0
13 0 3 0 27 0 0 0
13 0 3 1 27 0 0 0
13 0 3 2 27 0 0 0
13 0 3 3 27 0 0 0
13 0 3 4 27 0 0 0
13 0 3 5 27 0 0 0
13 0 3 6 27 0 0 0
13 0 3 7 27 0 0 0
13 0 3 8 27 0 0 0
13 0 3 9 27 0 0 0
13 0 3 10 27 0 0 0
13 0 3 11 27 0 0 0
13 0 3 12 27 0 0 0
13 0 3 13 27 0 0 0
13 0 3 14 27 0 0 0
13 0 3 15 27 0 0 0
13 0 4 0 28 0 0 0
13 0 4 1 28 0 0 0
13 0 4 2 28 0 0 0
13 0 4 3 28 0 0 0
13 0 4 4 28 0 0 0
13 0 4 5 28 0 0 0
13 0 4 6 28 0 0 0
13 0 4 7 28 0 0 0
13 0 4 8 28 0 0 0
13 0 4 9 28 0 0 0
13 0 4 10 28 0 0 0
13 0 4 11 28 0 0 0
13 0 4 12 28 0 0 0
13 0 4 13 28 0 0 0
13 0 4 14 28 0 0 0
13 0 4 15 28 0 0 1
13 8 0 0 24 0 1 0
13 8 0 1 24 0 0 0
13 8 0 2 24 0 0 0
13 8 0 3 24 0 0 0
13 8 0 4 24 0 0 0
13 8 0 5 24 0 0 0
13 8 0 6 24 0 0 0
13 8 0 7 24 0 0 0
13 8 0 8 24 0 0 0
13 8 0 9 24 0 0 0
13 8 0 10 24 0 0 0
13 8 0 11 24 0 0 0
13 8 0 12 24 0 0 0
13 8 0 13 24 0 0 0
13 8 0 14 24 0 0 0
13 8 0 15 24 0 0 0
13 8 1 0 25 0 0 0
13 8 1 1 25 0 0 0
13 8 1 2 25 0 0 0
13 8 1 3 25 0 0 0
13 8 1 4 25 0 0 0
13 8 1 5 25 0 0 0
13 8 1 6 25 0 0 0
13 8 1 7 25 0 0 0
13 8 1 8 25 0 0 0
13 8 1 9 25 0 0 0
13 8 1 10 25 0 0 0
13 8 1 11 25 0 0 0
13 8 1 12 25 0 0 0
13 8 1 13 25 0 0 0
13 8 1 14 25 0 0 0
13 8 1 15 25 0 0 0
13 8 2 0 26 0 0 0
13 8 2 1 26 0 0 0
13 8 2 2 26 0 0 0
13 8 2 3 26 0 0 0
13 8 2 4 26 0 0 0
13 8 2 5 26 0 0 0
13 8 2 6 26 0 0 0
13 8 2 7 26 0 0 0
13 8 2 8 26 0 0 0
13 8 2 9 26 0 0 0
13 8 2 10 26 0 0 0
13 8 2 11 26 0 0 0
13 8 2 12 26 0 0 0
13 8 2 13 26 0 0 0
13 8 2 14 26 0 0 0
13 8 2 15 26 0 0 0
13 8 3 0 27 0 0 0
13 8 3 1 27 0 0 0
13 8 3 2 27 0 0 0
13 8 3 3 27 0 0 0
13 8 3 4 27 0 0 0
13 8 3 5 27 0 0 0
13 8 3 6 27 0 0 0
13 8 3 7 27 0 0 0
13 8 3 8 27 0 0 0
13 8 3 9 27 0 0 0
13 8 3 10 27 0 0 0
13 8 3 11 27 0 0 0
13 8 3 12 27 0 0 0
13 8 3 13 27 0 0 0
13 8 3 14 27 0 0 0
13 8 3 15 27 0 0 0
13 8 4 0 28 0 0 0
13 8 4 1 28 0 0 0
13 8 4 2 28 0 0 0
13 8 4 3 28 0 0 0
13 8 4 4 28 0 0 0
13 8 4 5 28 0 0 0
13 8 4 6 28 0 0 0
13 8 4 7 28 0 0 0
13 8 4 8 28 0 0 0
13 8 4 9 28 0 0 0
13 8 4 10 28 0 0 0
13 8 4 11 28 0 0 0
13 8 4 12 28 0 0 0
13 8 4 13 28 0 0 0
13 8 4 14 28 0 0 0
13 8 4 15 28 0 0 1
13 16 0 0 24 0 1 0
13 16 0 1 24 0 0 0
13 16 0 2 24 0 0 0
13 16 0 3 24 0 0 0
13 16 0 4 24 0 0 0
13 16 0 5 24 0 0 0
13 16 0 6 24 0 0 0
13 16 0 7 24 0 0 0
13 16 0 8 24 0 0 0
13 16 0 9 24 0 0 0
13 16 0 10 24 0 0 0
13 16 0 11 24 0 0 0
13 16 0 12 24 0 0 0
13 16 0 13 24 0 0 0
13 16 0 14 24 0 0 0
13 16 0 15 24 0 0 0
13 16 1 0 25 0 0 0
13 16 1 1 25 0 0 0
13 16 1 2 25 0 0 0
13 16 1 3 25 0 0 0
13 16 1 4 25 0 0 0
13 16 1 5 25 0 0 0
13 16 1 6 25 0 0 0
13 16 1 7 25 0 0 0
13 16 1 8 25 0 0 0
13 16 1 9 25 0 0 0
13 16 1 10 25 0 0 0
13 16 1 11 25 0 0 0
13 16 1 12 25 0 0 0
13 16 1 13 25 0 0 0
13 16 1 14 25 0 0 0
13 16 1 15 25 0 0 0
13 16 2 0 26 0 0 0
13 16 2 1 26 0 0 0
13 16 2 2 26 0 0 0
13 16 2 3 26 0 0 0
13 16 2 4 26 0 0 0
13 16 2 5 26 0 0 0
13 16 2 6 26 0 0 0
13 16 2 7 26 0 0 0
13 16 2 8 26 0 0 0
13 16 2 9 26 0 0 0
13 16 2 10 26 0 0 0
13 16 2 11 26 0 0 0
13 16 2 12 26 0 0 0
13 16 2 13 26 0 0 0
13 16 2 14 26 0 0 0
13 16 2 15 26 0 0 0
13 16 3 0 27 0 0 0
13 16 3 1 27 0 0 0
13 16 3 2 27 0 0 0
13 16 3 3 27 0 0 0
13 16 3 4 27 0 0 0
13 16 3 5 27 0 0 0
13 16 3 6 27 0 0 0
13 16 3 7 27 0 0 0
13 16 3 8 27 0 0 0
13 16 3 9 27 0 0 0
13 16 3 10 27 0 0 0
13 16 3 11 27 0 0 0
13 16 3 12 27 0 0 0
13 16 3 13 27 0 0 0
13 16 3 14 27 0 0 0
13 16 3 15 27 0 0 0
13 16 4 0 28 0 0 0
13 16 4 1 28 0 0 0
13 16 4 2 28 0 0 0
13 16 4 3 28 0 0 0
13 16 4 4 28 0 0 0
13 16 4 5 28 0 0 0
13 16 4 6 28 0 0 0
13 16 4 7 28 0 0 0
13 16 4 8 28 0 0 0
13 16 4 9 28 0 0 0
13 16 4 10 28 0 0 0
13 16 4 11 28 0 0 0
13 16 4 12 28 0 0 0
13 16 4 13 28 0 0 0
13 16 4 14 28 0 0 0
13 16 4 15 28 0 0 1
14 0 0 0 26 0 1 0
14 0 0 1 26 0 0 0
14 0 0 2 26 0 0 0
14 0 0 3 26 0 0 0
14 0 0 4 26 0 0 0
14 0 0 5 26 0 0 0
14 0 0 6 26 0 0 0
14 0 0 7 26 0 0 0
14 0 0 8 26 0 0 0
14 0 0 9 26 0 0 0
14 0 0 10 26 0 0 0
14 0 0 11 26 0 0 0
14 0 0 12 26 0 0 0
14 0 0 13 26 0 0 0
14 0 0 14 26 0 0 0
14 0 0 15 26 0 0 0
14 0 1 0 27 0 0 0
14 0 1 1 27 0 0 0
14 0 1 2 27 0 0 0
14 0 1 3 27 0 0 0
14 0 1 4 27 0 0 0
14 0 1 5 27 0 0 0
14 0 1 6 27 0 0 0
14 0 1 7 27 0 0 0
14 0 1 8 27 0 0 0
14 0 1 9 27 0 0 0
14 0 1 10 27 0 0 0
14 0 1 11 27 0 0 0
14 0 1 12 27 0 0 0
14 0 1 13 27 0 0 0
14 0 1 14 27 0 0 0
14 0 1 15 27 0 0 0
14 0 2 0 28 0 0 0
14 0 2 1 28 0 0 0
14 0 2 2 28 0 0 0
14 0 2 3 28 0 0 0
14 0 2 4 28 0 0 0
14 0 2 5 28 0 0 0
14 0 2 6 28 0 0 0
14 0 2 7 28 0 0 0
14 0 2 8 28 0 0 0
14 0 2 9 28 0 0 0
14 0 2 10 28 0 0 0
14 0 2 11 28 0 0 0
14 0 2 12 28 0 0 0
14 0 2 13 28 0 0 0
14 0 2 14 28 0 0 0
14 0 2 15 28 0 0 0
14 0 3 0 29 0 0 0
14 0 3 1 29 0 0 0
14 0 3 2 29 0 0 0
14 0 3 3 29 0 0 0
14 0 3 4 29 0 0 0
14 0 3 5 29 0 0 0
14 0 3 6 29 0 0 0
14 0 3 7 29 0 0 0
14 0 3 8 29 0 0 0
14 0 3 9 29 0 0 0
14 0 3 10 29 0 0 0
14 0 3 11 29 0 0 0
14 0 3 12 29 0 0 0
14 0 3 13 29 0 0 0
14 0 3 14 29 0 0 0
14 0 3 15 29 0 0 0
14 0 4 0 30 0 0 0
14 0 4 1 30 0 0 0
14 0 4 2 30 0 0 0
14 0 4 3 30 0 0 0
14 0 4 4 30 0 0 0
14 0 4 5 30 0 0 0
14 0 4 6 30 0 0 0
14 0 4 7 30 0 0 0
14 0 4 8 30 0 0 0
14 0 4 9 30 0 0 0
14 0 4 10 30 0 0 0
14 0 4 11 30 0 0 0
14 0 4 12 30 0 0 0
14 0 4 13 30 0 0 0
14 0 4 14 30 0 0 0
14 0 4 15 30 0 0 1
14 8 0 0 26 0 1 0
14 8 0 1 26 0 0 0
14 8 0 2 26 0 0 0
14 8 0 3 26 0 0 0
14 8 0 4 26 0 0 0
14 8 0 5 26 0 0 0
14 8 0 6 26 0 0 0
14 8 0 7 26 0 0 0
14 8 0 8 26 0 0 0
14 8 0 9 26 0 0 0
14 8 0 10 26 0 0 0
14 8 0 11 26 0 0 0
14 8 0 12 26 0 0 0
14 8 0 13 26 0 0 0
14 8 0 14 26 0 0 0
14 8 0 15 26 0 0 0
14 8 1 0 27 0 0 0
14 8 1 1 27 0 0 0
14 8 1 2 27 0 0 0
14 8 1 3 27 0 0 0
14 8 1 4 27 0 0 0
14 8 1 5 27 0 0 0
14 8 1 6 27 0 0 0
14 8 1 7 27 0 0 0
14 8 1 8 27 0 0 0
14 8 1 9 27 0 0 0
14 8 1 10 27 0 0 0
14 8 1 11 27 0 0 0
14 8 1 12 27 0 0 0
14 8 1 13 27 0 0 0
14 8 1 14 27 0 0 0
14 8 1 15 27 0 0 0
14 8 2 0 28 0 0 0
14 8 2 1 28 0 0 0
14 8 2 2 28 0 0 0
14 8 2 3 28 0 0 0
14 8 2 4 28 0 0 0
14 8 2 5 28 0 0 0
14 8 2 6 28 0 0 0
14 8 2 7 28 0 0 0
14 8 2 8 28 0 0 0
14 8 2 9 28 0 0 0
14 8 2 10 28 0 0 0
14 8 2 11 28 0 0 0
14 8 2 12 28 0 0 0
14 8 2 13 28 0 0 0
14 8 2 14 28 0 0 0
14 8 2 15 28 0 0 0
14 8 3 0 29 0 0 0
14 8 3 1 29 0 0 0
14 8 3 2 29 0 0 0
14 8 3 3 29 0 0 0
14 8 3 4 29 0 0 0
14 8 3 5 29 0 0 0
14 8 3 6 29 0 0 0
14 8 3 7 29 0 0 0
14 8 3 8 29 0 0 0
14 8 3 9 29 0 0 0
14 8 3 10 29 0 0 0
14 8 3 11 29 0 0 0
14 8 3 12 29 0 0 0
14 8 3 13 29 0 0 0
14 8 3 14 29 0 0 0
14 8 3 15 29 0 0 0
14 8 4 0 30 0 0 0
14 8 4 1 30 0 0 0
14 8 4 2 30 0 0 0
14 8 4 3 30 0 0 0
14 8 4 4 30 0 0 0
14 8 4 5 30 0 0 0
14 8 4 6 30 0 0 0
14 8 4 7 30 0 0 0
14 8 4 8 30 0 0 0
14 8 4 9 30 0 0 0
14 8 4 10 30 0 0 0
14 8 4 11 30 0 0 0
14 8 4 12 30 0 0 0
14 8 4 13 30 0 0 0
14 8 4 14 30 0 0 0
14 8 4 15 30 0 0 1
14 16 0 0 26 0 1 0
14 16 0 1 26 0 0 0
14 16 0 2 26 0 0 0
14 16 0 3 26 0 0 0
14 16 0 4 26 0 0 0
14 16 0 5 26 0 0 0
14 16 0 6 26 0 0 0
14 16 0 7 26 0 0 0
14 16 0 8 26 0 0 0
14 16 0 9 26 0 0 0
14 16 0 10 26 0 0 0
14 16 0 11 26 0 0 0
14 16 0 12 26 0 0 0
14 16 0 13 26 0 0 0
14 16 0 14 26 0 0 0
14 16 0 15 26 0 0 0
14 16 1 0 27 0 0 0
14 16 1 1 27 0 0 0
14 16 1 2 27 0 0 0
14 16 1 3 27 0 0 0
14 16 1 4 27 0 0 0
14 16 1 5 27 0 0 0
14 16 1 6 27 0 0 0
14 16 1 7 27 0 0 0
14 16 1 8 27 0 0 0
14 16 1 9 27 0 0 0
14 16 1 10 27 0 0 0
14 16 1 11 27 0 0 0
14 16 1 12 27 0 0 0
14 16 1 13 27 0 0 0
14 16 1 14 27 0 0 0
14 16 1 15 27 0 0 0
14 16 2 0 28 0 0 0
14 16 2 1 28 0 0 0
14 16 2 2 28 0 0 0
14 16 2 3 28 0 0 0
14 16 2 4 28 0 0 0
14 16 2 5 28 0 0 0
14 16 2 6 28 0 0 0
14 16 2 7 28 0 0 0
14 16 2 8 28 0 0 0
14 16 2 9 28 0 0 0
14 16 2 10 28 0 0 0
14 16 2 11 28 0 0 0
14 16 2 12 28 0 0 0
14 16 2 13 28 0 0 0
14 16 2 14 28 0 0 0
14 16 2 15 28 0 0 0
14 16 3 0 29 0 0 0
14 16 3 1 29 0 0 0
14 16 3 2 29 0 0 0
14 16 3 3 29 0 0 0
14 16 3 4 29 0 0 0
14 16 3 5 29 0 0 0
14 16 3 6 29 0 0 0
14 16 3 7 29 0 0 0
14 16 3 8 29 0 0 0
14 16 3 9 29 0 0 0
14 16 3 10 29 0 0 0
14 16 3 11 29 0 0 0
14 16 3 12 29 0 0 0
14 16 3 13 29 0 0 0
14 16 3 14 29 0 0 0
14 16 3 15 29 0 0 0
14 16 4 0 30 0 0 0
14 16 4 1 30 0 0 0
14 16 4 2 30 0 0 0
14 16 4 3 30 0 0 0
14 16 4 4 30 0 0 0
14 16 4 5 30 0 0 0
14 16 4 6 30 0 0 0
14 16 4 7 30 0 0 0
14 16 4 8 30 0 0 0
14 16 4 9 30 0 0 0
14 16 4 10 30 0 0 0
14 16 4 11 30 0 0 0
14 16 4 12 30 0 0 0
14 16 4 13 30 0 0 0
14 16 4 14 30 0 0 0
14 16 4 15 30 0 0 1
15 0 0 0 28 0 1 0
15 0 0 1 28 0 0 0
15 0 0 2 28 0 0 0
15 0 0 3 28 0 0 0
15 0 0 4 28 0 0 0
15 0 0 5 28 0 0 0
15 0 0 6 28 0 0 0
15 0 0 7 28 0 0 0
15 0 0 8 28 0 0 0
15 0 0 9 28 0 0 0
15 0 0 10 28 0 0 0
15 0 0 11 28 0 0 0
15 0 0 12 28 0 0 0
15 0 0 13 28 0 0 0
15 0 0 14 28 0 0 0
15 0 0 15 28 0 0 0
15 0 1 0 29 0 0 0
15 0 1 1 29 0 0 0
15 0 1 2 29 0 0 0
15 0 1 3 29 0 0 0
15 0 1 4 29 0 0 0
15 0 1 5 29 0 0 0
15 0 1 6 29 0 0 0
15 0 1 7 29 0 0 0
15 0 1 8 29 0 0 0
15 0 1 9 29 0 0 0
15 0 1 10 29 0 0 0
15 0 1 11 29 0 0 0
15 0 1 12 29 0 0 0
15 0 1 13 29 0 0 0
15 0 1 14 29 0 0 0
15 0 1 15 29 0 0 0
15 0 2 0 30 0 0 0
15 0 2 1 30 0 0 0
15 0 2 2 30 0 0 0
15 0 2 3 30 0 0 0
15 0 2 4 30 0 0 0
15 0 2 5 30 0 0 0
15 0 2 6 30 0 0 0
15 0 2 7 30 0 0 0
15 0 2 8 30 0 0 0
15 0 2 9 30 0 0 0
15 0 2 10 30 0 0 0
15 0 2 11 30 0 0 0
15 0 2 12 30 0 0 0
15 0 2 13 30 0 0 0
15 0 2 14 30 0 0 0
15 0 2 15 30 0 0 0
15 0 3 0 31 0 0 0
15 0 3 1 31 0 0 0
15 0 3 2 31 0 0 0
15 0 3 3 31 0 0 0
15 0 3 4 31 0 0 0
15 0 3 5 31 0 0 0
15 0 3 6 31 0 0 0
15 0 3 7 31 0 0 0
15 0 3 8 31 0 0 0
15 0 3 9 31 0 0 0
15 0 3 10 31 0 0 0
15 0 3 11 31 0 0 0
15 0 3 12 31 0 0 0
15 0 3 13 31 0 0 0
15 0 3 14 31 0 0 0
15 0 3 15 31 0 0 0
15 0 4 0 32 0 0 0
15 0 4 1 32 0 0 0
15 0 4 2 32 0 0 0
15 0 4 3 32 0 0 0
15 0 4 4 32 0 0 0
15 0 4 5 32 0 0 0
15 0 4 6 32 0 0 0
15 0 4 7 32 0 0 0
15 0 4 8 32 0 0 0
15 0 4 9 32 0 0 0
15 0 4 10 32 0 0 0
15 0 4 11 32 0 0 0
15 0 4 12 32 0 0 0
15 0 4 13 32 0 0 0
15 0 4 14 32 0 0 0
15 0 4 15 32 0 0 1
15 8 0 0 28 0 1 0
15 8 0 1 28 0 0 0
15 8 0 2 28 0 0 0
15 8 0 3 28 0 0 0
15 8 0 4 28 0 0 0
15 8 0 5 28 0 0 0
15 8 0 6 28 0 0 0
15 8 0 7 28 0 0 0
15 8 0 8 28 0 0 0
15 8 0 9 28 0 0 0
15 8 0 10 28 0 0 0
15 8 0 11 28 0 0 0
15 8 0 12 28 0 0 0
15 8 0 13 28 0 0 0
15 8 0 14 28 0 0 0
15 8 0 15 28 0 0 0
15 8 1 0 29 0 0 0
15 8 1 1 29 0 0 0
15 8 1 2 29 0 0 0
15 8 1 3 29 0 0 0
15 8 1 4 29 0 0 0
15 8 1 5 29 0 0 0
15 8 1 6 29 0 0 0
15 8 1 7 29 0 0 0
15 8 1 8 29 0 0 0
15 8 1 9 29 0 0 0
15 8 1 10 29 0 0 0
15 8 1 11 29 0 0 0
15 8 1 12 29 0 0 0
15 8 1 13 29 0 0 0
15 8 1 14 29 0 0 0
15 8 1 15 29 0 0 0
15 8 2 0 30 0 0 0
15 8 2 1 30 0 0 0
15 8 2 2 30 0 0 0
15 8 2 3 30 0 0 0
15 8 2 4 30 0 0 0
15 8 2 5 30 0 0 0
15 8 2 6 30 0 0 0
15 8 2 7 30 0 0 0
15 8 2 8 30 0 0 0
15 8 2 9 30 0 0 0
15 8 2 10 30 0 0 0
15 8 2 11 30 0 0 0
15 8 2 12 30 0 0 0
15 8 2 13 30 0 0 0
15 8 2 14 30 0 0 0
15 8 2 15 30 0 0 0
15 8 3 0 31 0 0 0
15 8 3 1 31 0 0 0
15 8 3 2 31 0 0 0
15 8 3 3 31 0 0 0
15 8 3 4 31 0 0 0
15 8 3 5 31 0 0 0
15 8 3 6 31 0 0 0
15 8 3 7 31 0 0 0
15 8 3 8 31 0 0 0
15 8 3 9 31 0 0 0
15 8 3 10 31 0 0 0
15 8 3 11 31 0 0 0
15 8 3 12 31 0 0 0
15 8 3 13 31 0 0 0
15 8 3 14 31 0 0 0
15 8 3 15 31 0 0 0
15 8 4 0 32 0 0 0
15 8 4 1 32 0 0 0
15 8 4 2 32 0 0 0
15 8 4 3 32 0 0 0
15 8 4 4 32 0 0 0
15 8 4 5 32 0 0 0
15 8 4 6 32 0 0 0
15 8 4 7 32 0 0 0
15 8 4 8 32 0 0 0
15 8 4 9 32 0 0 0
15 8 4 10 32 0 0 0
15 8 4 11 32 0 0 0
15 8 4 12 32 0 0 0
15 8 4 13 32 0 0 0
15 8 4 14 32 0 0 0
15 8 4 15 32 0 0 1
15 16 0 0 28 0 1 0
15 16 0 1 28 0 0 0
15 16 0 2 28 0 0 0
15 16 0 3 28 0 0 0
15 16 0 4 28 0 0 0
15 16 0 5 28 0 0 0
15 16 0 6 28 0 0 0
15 16 0 7 28 0 0 0
15 16 0 8 28 0 0 0
15 16 0 9 28 0 0 0
15 16 0 10 28 0 0 0
15 16 0 11 28 0 0 0
15 16 0 12 28 0 0 0
15 16 0 13 28 0 0 0
15 16 0 14 28 0 0 0
15 16 0 15 28 0 0 0
15 16 1 0 29 0 0 0
15 16 1 1 29 0 0 0
15 16 1 2 29 0 0 0
15 16 1 3 29 0 0 0
15 16 1 4 29 0 0 0
15 16 1 5 29 0 0 0
15 16 1 6 29 0 0 0
15 16 1 7 29 0 0 0
15 16 1 8 29 0 0 0
15 16 1 9 29 0 0 0
15 16 1 10 29 0 0 0
15 16 1 11 29 0 0 0
15 16 1 12 29 0 0 0
15 16 1 13 29 0 0 0
15 16 1 14 29 0 0 0
15 16 1 15 29 0 0 0
15 16 2 0 30 0 0 0
15 16 2 1 30 0 0 0
15 16 2 2 30 0 0 0
15 16 2 3 30 0 0 0
15 16 2 4 30 0 0 0
15 16 2 5 30 0 0 0
15 16 2 6 30 0 0 0
15 16 2 7 30 0 0 0
15 16 2 8 30 0 0 0
15 16 2 9 30 0 0 0
15 16 2 10 30 0 0 0
15 16 2 11 30 0 0 0
15 16 2 12 30 0 0 0
15 16 2 13 30 0 0 0
15 16 2 14 30 0 0 0
15 16 2 15 30 0 0 0
15 16 3 0 31 0 0 0
15 16 3 1 31 0 0 0
15 16 3 2 31 0 0 0
15 16 3 3 31 0 0 0
15 16 3 4 31 0 0 0
15 16 3 5 31 0 0 0
15 16 3 6 31 0 0 0
15 16 3 7 31 0 0 0
15 16 3 8 31 0 0 0
15 16 3 9 31 0 0 0
15 16 3 10 31 0 0 0
15 16 3 11 31 0 0 0
15 16 3 12 31 0 0 0
15 16 3 13 31 0 0 0
15 16 3 14 31 0 0 0
15 16 3 15 31 0 0 0
15 16 4 0 32 0 0 0
15 16 4 1 32 0 0 0
15 16 4 2 32 0 0 0
15 16 4 3 32 0 0 0
15 16 4 4 32 0 0 0
15 16 4 5 32 0 0 0
15 16 4 6 32 0 0 0
15 16 4 7 32 0 0 0
15 16 4 8 32 0 0 0
15 16 4 9 32 0 0 0
15 16 4 10 32 0 0 0
15 16 4 11 32 0 0 0
15 16 4 12 32 0 0 0
15 16 4 13 32 0 0 0
15 16 4 14 32 0 0 0
15 16 4 15 32 0 0 1
16 0 0 0 30 0 1 0
16 0 0 1 30 0 0 0
16 0 0 2 30 0 0 0
16 0 0 3 30 0 0 0
16 0 0 4 30 0 0 0
16 0 0 5 30 0 0 0
16 0 0 6 30 0 0 0
16 0 0 7 30 0 0 0
16 0 0 8 30 0 0 0
16 0 0 9 30 0 0 0
16 0 0 10 30 0 0 0
16 0 0 11 30 0 0 0
16 0 0 12 30 0 0 0
16 0 0 13 30 0 0 0
16 0 0 14 30 0 0 0
16 0 0 15 30 0 0 0
16 0 1 0 31 0 0 0
16 0 1 1 31 0 0 0
16 0 1 2 31 0 0 0
16 0 1 3 31 0 0 0
16 0 1 4 31 0 0 0
16 0 1 5 31 0 0 0
16 0 1 6 31 0 0 0
16 0 1 7 31 0 0 0
16 0 1 8 31 0 0 0
16 0 1 9 31 0 0 0
16 0 1 10 31 0 0 0
16 0 1 11 31 0 0 0
16 0 1 12 31 0 0 0
16 0 1 13 31 0 0 0
16 0 1 14 31 0 0 0
16 0 1 15 31 0 0 0
16 0 2 0 32 0 0 0
16 0 2 1 32 0 0 0
16 0 2 2 32 0 0 0
16 0 2 3 32 0 0 0
16 0 2 4 32 0 0 0
16 0 2 5 32 0 0 0
16 0 2 6 32 0 0 0
16 0 2 7 32 0 0 0
16 0 2 8 32 0 0 0
16 0 2 9 32 0 0 0
16 0 2 10 32 0 0 0
16 0 2 11 32 0 0 0
16 0 2 12 32 0 0 0
16 0 2 13 32 0 0 0
16 0 2 14 32 0 0 0
16 0 2 15 32 0 0 0
16 0 3 0 33 0 0 0
16 0 3 1 33 0 0 0
16 0 3 2 33 0 0 0
16 0 3 3 33 0 0 0
16 0 3 4 33 0 0 0
16 0 3 5 33 0 0 0
16 0 3 6 33 0 0 0
16 0 3 7 33 0 0 0
16 0 3 8 33 0 0 0
16 0 3 9 33 0 0 0
16 0 3 10 33 0 0 0
16 0 3 11 33 0 0 0
16 0 3 12 33 0 0 0
16 0 3 13 33 0 0 0
16 0 3 14 33 0 0 0
16 0 3 15 33 0 0 0
16 0 4 0 34 0 0 0
16 0 4 1 34 0 0 0
16 0 4 2 34 0 0 0
16 0 4 3 34 0 0 0
16 0 4 4 34 0 0 0
16 0 4 5 34 0 0 0
16 0 4 6 34 0 0 0
16 0 4 7 34 0 0 0
16 0 4 8 34 0 0 0
16 0 4 9 34 0 0 0
16 0 4 10 34 0 0 0
16 0 4 11 34 0 0 0
16 0 4 12 34 0 0 0
16 0 4 13 34 0 0 0
16 0 4 14 34 0 0 0
16 0 4 15 34 0 0 1
16 8 0 0 30 0 1 0
16 8 0 1 30 0 0 0
16 8 0 2 30 0 0 0
16 8 0 3 30 0 0 0
16 8 0 4 30 0 0 0
16 8 0 5 30 0 0 0
16 8 0 6 30 0 0 0
16 8 0 7 30 0 0 0
16 8 0 8 30 0 0 0
16 8 0 9 30 0 0 0
16 8 0 10 30 0 0 0
16 8 0 11 30 0 0 0
16 8 0 12 30 0 0 0
16 8 0 13 30 0 0 0
16 8 0 14 30 0 0 0
16 8 0 15 30 0 0 0
16 8 1 0 31 0 0 0
16 8 1 1 31 0 0 0
16 8 1 2 31 0 0 0
16 8 1 3 31 0 0 0
16 8 1 4 31 0 0 0
16 8 1 5 31 0 0 0
16 8 1 6 31 0 0 0
16 8 1 7 31 0 0 0
16 8 1 8 31 0 0 0
16 8 1 9 31 0 0 0
16 8 1 10 31 0 0 0
16 8 1 11 31 0 0 0
16 8 1 12 31 0 0 0
16 8 1 13 31 0 0 0
16 8 1 14 31 0 0 0
16 8 1 15 31 0 0 0
16 8 2 0 32 0 0 0
16 8 2 1 32 0 0 0
16 8 2 2 32 0 0 0
16 8 2 3 32 0 0 0
16 8 2 4 32 0 0 0
16 8 2 5 32 0 0 0
16 8 2 6 32 0 0 0
16 8 2 7 32 0 0 0
16 8 2 8 32 0 0 0
16 8 2 9 32 0 0 0
16 8 2 10 32 0 0 0
16 8 2 11 32 0 0 0
16 8 2 12 32 0 0 0
16 8 2 13 32 0 0 0
16 8 2 14 32 0 0 0
16 8 2 15 32 0 0 0
16 8 3 0 33 0 0 0
16 8 3 1 33 0 0 0
16 8 3 2 33 0 0 0
16 8 3 3 33 0 0 0
16 8 3 4 33 0 0 0
16 8 3 5 33 0 0 0
16 8 3 6 33 0 0 0
16 8 3 7 33 0 0 0
16 8 3 8 33 0 0 0
16 8 3 9 33 0 0 0
16 8 3 10 33 0 0 0
16 8 3 11 33 0 0 0
16 8 3 12 33 0 0 0
16 8 3 13 33 0 0 0
16 8 3 14 33 0 0 0
16 8 3 15 33 0 0 0
16 8 4 0 34 0 0 0
16 8 4 1 34 0 0 0
16 8 4 2 34 0 0 0
16 8 4 3 34 0 0 0
16 8 4 4 34 0 0 0
16 8 4 5 34 0 0 0
16 8 4 6 34 0 0 0
16 8 4 7 34 0 0 0
16 8 4 8 34 0 0 0
16 8 4 9 34 0 0 0
16 8 4 10 34 0 0 0
16 8 4 11 34 0 0 0
16 8 4 12 34 0 0 0
16 8 4 13 34 0 0 0
16 8 4 14 34 0 0 0
16 8 4 15 34 0 0 1
16 16 0 0 30 0 1 0
16 16 0 1 30 0 0 0
16 16 0 2 30 0 0 0
16 16 0 3 30 0 0 0
16 16 0 4 30 0 0 0
16 16 0 5 30 0 0 0
16 16 0 6 30 0 0 0
16 16 0 7 30 0 0 0
16 16 0 8 30 0 0 0
16 16 0 9 30 0 0 0
16 16 0 10 30 0 0 0
16 16 0 11 30 0 0 0
16 16 0 12 30 0 0 0
16 16 0 13 30 0 0 0
16 16 0 14 30 0 0 0
16 16 0 15 30 0 0 0
16 16 1 0 31 0 0 0
16 16 1 1 31 0 0 0
16 16 1 2 31 0 0 0
16 16 1 3 31 0 0 0
16 16 1 4 31 0 0 0
16 16 1 5 31 0 0 0
16 16 1 6 31 0 0 0
16 16 1 7 31 0 0 0
16 16 1 8 31 0 0 0
16 16 1 9 31 0 0 0
16 16 1 10 31 0 0 0
16 16 1 11 31 0 0 0
16 16 1 12 31 0 0 0
16 16 1 13 31 0 0 0
16 16 1 14 31 0 0 0
16 16 1 15 31 0 0 0
16 16 2 0 32 0 0 0
16 16 2 1 32 0 0 0
16 16 2 2 32 0 0 0
16 16 2 3 32 0 0 0
16 16 2 4 32 0 0 0
16 16 2 5 32 0 0 0
16 16 2 6 32 0 0 0
16 16 2 7 32 0 0 0
16 16 2 8 32 0 0 0
16 16 2 9 32 0 0 0
16 16 2 10 32 0 0 0
16 16 2 11 32 0 0 0
16 16 2 12 32 0 0 0
16 16 2 13 32 0 0 0
16 16 2 14 32 0 0 0
16 16 2 15 32 0 0 0
16 16 3 0 33 0 0 0
16 16 3 1 33 0 0 0
16 16 3 2 33 0 0 0
16 16 3 3 33 0 0 0
16 16 3 4 33 0 0 0
16 16 3 5 33 0 0 0
16 16 3 6 33 0 0 0
16 16 3 7 33 0 0 0
16 16 3 8 33 0 0 0
16 16 3 9 33 0 0 0
16 16 3 10 33 0 0 0
16 16 3 11 33 0 0 0
16 16 3 12 33 0 0 0
16 16 3 13 33 0 0 0
16 16 3 14 33 0 0 0
16 16 3 15 33 0 0 0
16 16 4 0 34 0 0 0
16 16 4 1 34 0 0 0
16 16 4 2 34 0 0 0
16 16 4 3 34 0 0 0
16 16 4 4 34 0 0 0
16 16 4 5 34 0 0 0
16 16 4 6 34 0 0 0
16 16 4 7 34 0 0 0
16 16 4 8 34 0 0 0
16 16 4 9 34 0 0 0
16 16 4 10 34 0 0 0
16 16 4 11 34 0 0 0
16 16 4 12 34 0 0 0
16 16 4 13 34 0 0 0
16 16 4 14 34 0 0 0
16 16 4 15 34 0 0 1
17 0 0 0 32 0 1 0
17 0 0 1 32 0 0 0
17 0 0 2 32 0 0 0
17 0 0 3 32 0 0 0
17 0 0 4 32 0 0 0
17 0 0 5 32 0 0 0
17 0 0 6 32 0 0 0
17 0 0 7 32 0 0 0
17 0 0 8 32 0 0 0
17 0 0 9 32 0 0 0
17 0 0 10 32 0 0 0
17 0 0 11 32 0 0 0
17 0 0 12 32 0 0 0
17 0 0 13 32 0 0 0
17 0 0 14 32 0 0 0
17 0 0 15 32 0 0 0
17 0 1 0 33 0 0 0
17 0 1 1 33 0 0 0
17 0 1 2 33 0 0 0
17 0 1 3 33 0 0 0
17 0 1 4 33 0 0 0
17 0 1 5 33 0 0 0
17 0 1 6 33 0 0 0
17 0 1 7 33 0 0 0
17 0 1 8 33 0 0 0
17 0 1 9 33 0 0 0
17 0 1 10 33 0 0 0
17 0 1 11 33 0 0 0
17 0 1 12 33 0 0 0
17 0 1 13 33 0 0 0
17 0 1 14 33 0 0 0
17 0 1 15 33 0 0 0
17 0 2 0 34 0 0 0
17 0 2 1 34 0 0 0
17 0 2 2 34 0 0 0
17 0 2 3 34 0 0 0
17 0 2 4 34 0 0 0
17 0 2 5 34 0 0 0
17 0 2 6 34 0 0 0
17 0 2 7 34 0 0 0
17 0 2 8 34 0 0 0
17 0 2 9 34 0 0 0
17 0 2 10 34 0 0 0
17 0 2 11 34 0 0 0
17 0 2 12 34 0 0 0
17 0 2 13 34 0 0 0
17 0 2 14 34 0 0 0
17 0 2 15 34 0 0 0
17 0 3 0 35 0 0 0
17 0 3 1 35 0 0 0
17 0 3 2 35 0 0 0
17 0 3 3 35 0 0 0
17 0 3 4 35 0 0 0
17 0 3 5 35 0 0 0
17 0 3 6 35 0 0 0
17 0 3 7 35 0 0 0
17 0 3 8 35 0 0 0
17 0 3 9 35 0 0 0
17 0 3 10 35 0 0 0
17 0 3 11 35 0 0 0
17 0 3 12 35 0 0 0
17 0 3 13 35 0 0 0
17 0 3 14 35 0 0 0
17 0 3 15 35 0 0 0
17 0 4 0 36 0 0 0
17 0 4 1 36 0 0 0
17 0 4 2 36 0 0 0
17 0 4 3 36 0 0 0
17 0 4 4 36 0 0 0
17 0 4 5 36 0 0 0
17 0 4 6 36 0 0 0
17 0 4 7 36 0 0 0
17 0 4 8 36 0 0 0
17 0 4 9 36 0 0 0
17 0 4 10 36 0 0 0
17 0 4 11 36 0 0 0
17 0 4 12 36 0 0 0
17 0 4 13 36 0 0 0
17 0 4 14 36 0 0 0
17 0 4 15 36 0 0 1
17 8 0 0 32 0 1 0
17 8 0 1 32 0 0 0
17 8 0 2 32 0 0 0
17 8 0 3 32 0 0 0
17 8 0 4 32 0 0 0
17 8 0 5 32 0 0 0
17 8 0 6 32 0 0 0
17 8 0 7 32 0 0 0
17 8 0 8 32 0 0 0
17 8 0 9 32 0 0 0
17 8 0 10 32 0 0 0
17 8 0 11 32 0 0 0
17 8 0 12 32 0 0 0
17 8 0 13 32 0 0 0
17 8 0 14 32 0 0 0
17 8 0 15 32 0 0 0
17 8 1 0 33 0 0 0
17 8 1 1 33 0 0 0
17 8 1 2 33 0 0 0
17 8 1 3 33 0 0 0
17 8 1 4 33 0 0 0
17 8 1 5 33 0 0 0
17 8 1 6 33 0 0 0
17 8 1 7 33 0 0 0
17 8 1 8 33 0 0 0
17 8 1 9 33 0 0 0
17 8 1 10 33 0 0 0
17 8 1 11 33 0 0 0
17 8 1 12 33 0 0 0
17 8 1 13 33 0 0 0
17 8 1 14 33 0 0 0
17 8 1 15 33 0 0 0
17 8 2 0 34 0 0 0
17 8 2 1 34 0 0 0
17 8 2 2 34 0 0 0
17 8 2 3 34 0 0 0
17 8 2 4 34 0 0 0
17 8 2 5 34 0 0 0
17 8 2 6 34 0 0 0
17 8 2 7 34 0 0 0
17 8 2 8 34 0 0 0
17 8 2 9 34 0 0 0
17 8 2 10 34 0 0 0
17 8 2 11 34 0 0 0
17 8 2 12 34 0 0 0
17 8 2 13 34 0 0 0
17 8 2 14 34 0 0 0
17 8 2 15 34 0 0 0
17 8 3 0 35 0 0 0
17 8 3 1 35 0 0 0
17 8 3 2 35 0 0 0
17 8 3 3 35 0 0 0
17 8 3 4 35 0 0 0
17 8 3 5 35 0 0 0
17 8 3 6 35 0 0 0
17 8 3 7 35 0 0 0
17 8 3 8 35 0 0 0
17 8 3 9 35 0 0 0
17 8 3 10 35 0 0 0
17 8 3 11 35 0 0 0
17 8 3 12 35 0 0 0
17 8 3 13 35 0 0 0
17 8 3 14 35 0 0 0
17 8 3 15 35 0 0 0
17 8 4 0 36 0 0 0
17 8 4 1 36 0 0 0
17 8 4 2 36 0 0 0
17 8 4 3 36 0 0 0
17 8 4 4 36 0 0 0
17 8 4 5 36 0 0 0
17 8 4 6 36 0 0 0
17 8 4 7 36 0 0 0
17 8 4 8 36 0 0 0
17 8 4 9 36 0 0 0
17 8 4 10 36 0 0 0
17 8 4 11 36 0 0 0
17 8 4 12 36 0 0 0
17 8 4 13 36 0 0 0
17 8 4 14 36 0 0 0
17 8 4 15 36 0 0 1
17 16 0 0 32 0 1 0
17 16 0 1 32 0 0 0
17 16 0 2 32 0 0 0
17 16 0 3 32 0 0 0
17 16 0 4 32 0 0 0
17 16 0 5 32 0 0 0
17 16 0 6 32 0 0 0
17 16 0 7 32 0 0 0
17 16 0 8 32 0 0 0
17 16 0 9 32 0 0 0
17 16 0 10 32 0 0 0
17 16 0 11 32 0 0 0
17 16 0 12 32 0 0 0
17 16 0 13 32 0 0 0
17 16 0 14 32 0 0 0
17 16 0 15 32 0 0 0
17 16 1 0 33 0 0 0
17 16 1 1 33 0 0 0
17 16 1 2 33 0 0 0
17 16 1 3 33 0 0 0
17 16 1 4 33 0 0 0
17 16 1 5 33 0 0 0
17 16 1 6 33 0 0 0
17 16 1 7 33 0 0 0
17 16 1 8 33 0 0 0
17 16 1 9 33 0 0 0
17 16 1 10 33 0 0 0
17 16 1 11 33 0 0 0
17 16 1 12 33 0 0 0
17 16 1 13 33 0 0 0
17 16 1 14 33 0 0 0
17 16 1 15 33 0 0 0
17 16 2 0 34 0 0 0
17 16 2 1 34 0 0 0
17 16 2 2 34 0 0 0
17 16 2 3 34 0 0 0
17 16 2 4 34 0 0 0
17 16 2 5 34 0 0 0
17 16 2 6 34 0 0 0
17 16 2 7 34 0 0 0
17 16 2 8 34 0 0 0
17 16 2 9 34 0 0 0
17 16 2 10 34 0 0 0
17 16 2 11 34 0 0 0
17 16 2 12 34 0 0 0
17 16 2 13 34 0 0 0
17 16 2 14 34 0 0 0
17 16 2 15 34 0 0 0
17 16 3 0 35 0 0 0
17 16 3 1 35 0 0 0
17 16 3 2 35 0 0 0
17 16 3 3 35 0 0 0
17 16 3 4 35 0 0 0
17 16 3 5 35 0 0 0
17 16 3 6 35 0 0 0
17 16 3 7 35 0 0 0
17 16 3 8 35 0 0 0
17 16 3 9 35 0 0 0
17 16 3 10 35 0 0 0
17 16 3 11 35 0 0 0
17 16 3 12 35 0 0 0
17 16 3 13 35 0 0 0
17 16 3 14 35 0 0 0
17 16 3 15 35 0 0 0
17 16 4 0 36 0 0 0
17 16 4 1 36 0 0 0
17 16 4 2 36 0 0 0
17 16 4 3 36 0 0 0
17 16 4 4 36 0 0 0
17 16 4 5 36 0 0 0
17 16 4 6 36 0 0 0
17 16 4 7 36 0 0 0
17 16 4 8 36 0 0 0
17 16 4 9 36 0 0 0
17 16 4 10 36 0 0 0
17 16 4 11 36 0 0 0
17 16 4 12 36 0 0 0
17 16 4 13 36 0 0 0
17 16 4 14 36 0 0 0
17 16 4 15 36 0 0 1
18 0 0 0 34 0 1 0
18 0 0 1 34 0 0 0
18 0 0 2 34 0 0 0
18 0 0 3 34 0 0 0
18 0 0 4 34 0 0 0
18 0 0 5 34 0 0 0
18 0 0 6 34 0 0 0
18 0 0 7 34 0 0 0
18 0 0 8 34 0 0 0
18 0 0 9 34 0 0 0
18 0 0 10 34 0 0 0
18 0 0 11 34 0 0 0
18 0 0 12 34 0 0 0
18 0 0 13 34 0 0 0
18 0 0 14 34 0 0 0
18 0 0 15 34 0 0 0
18 0 1 0 35 0 0 0
18 0 1 1 35 0 0 0
18 0 1 2 35 0 0 0
18 0 1 3 35 0 0 0
18 0 1 4 35 0 0 0
18 0 1 5 35 0 0 0
18 0 1 6 35 0 0 0
18 0 1 7 35 0 0 0
18 0 1 8 35 0 0 0
18 0 1 9 35 0 0 0
18 0 1 10 35 0 0 0
18 0 1 11 35 0 0 0
18 0 1 12 35 0 0 0
18 0 1 13 35 0 0 0
18 0 1 14 35 0 0 0
18 0 1 15 35 0 0 0
18 0 2 0 36 0 0 0
18 0 2 1 36 0 0 0
18 0 2 2 36 0 0 0
18 0 2 3 36 0 0 0
18 0 2 4 36 0 0 0
18 0 2 5 36 0 0 0
18 0 2 6 36 0 0 0
18 0 2 7 36 0 0 0
18 0 2 8 36 0 0 0
18 0 2 9 36 0 0 0
18 0 2 10 36 0 0 0
18 0 2 11 36 0 0 0
18 0 2 12 36 0 0 0
18 0 2 13 36 0 0 0
18 0 2 14 36 0 0 0
18 0 2 15 36 0 0 0
18 0 3 0 37 0 0 0
18 0 3 1 37 0 0 0
18 0 3 2 37 0 0 0
18 0 3 3 37 0 0 0
18 0 3 4 37 0 0 0
18 0 3 5 37 0 0 0
18 0 3 6 37 0 0 0
18 0 3 7 37 0 0 0
18 0 3 8 37 0 0 0
18 0 3 9 37 0 0 0
18 0 3 10 37 0 0 0
18 0 3 11 37 0 0 0
18 0 3 12 37 0 0 0
18 0 3 13 37 0 0 0
18 0 3 14 37 0 0 0
18 0 3 15 37 0 0 0
18 0 4 0 38 0 0 0
18 0 4 1 38 0 0 0
18 0 4 2 38 0 0 0
18 0 4 3 38 0 0 0
18 0 4 4 38 0 0 0
18 0 4 5 38 0 0 0
18 0 4 6 38 0 0 0
18 0 4 7 38 0 0 0
18 0 4 8 38 0 0 0
18 0 4 9 38 0 0 0
18 0 4 10 38 0 0 0
18 0 4 11 38 0 0 0
18 0 4 12 38 0 0 0
18 0 4 13 38 0 0 0
18 0 4 14 38 0 0 0
18 0 4 15 38 0 0 1
18 8 0 0 34 0 1 0
18 8 0 1 34 0 0 0
18 8 0 2 34 0 0 0
18 8 0 3 34 0 0 0
18 8 0 4 34 0 0 0
18 8 0 5 34 0 0 0
18 8 0 6 34 0 0 0
18 8 0 7 34 0 0 0
18 8 0 8 34 0 0 0
18 8 0 9 34 0 0 0
18 8 0 10 34 0 0 0
18 8 0 11 34 0 0 0
18 8 0 12 34 0 0 0
18 8 0 13 34 0 0 0
18 8 0 14 34 0 0 0
18 8 0 15 34 0 0 0
18 8 1 0 35 0 0 0
18 8 1 1 35 0 0 0
18 8 1 2 35 0 0 0
18 8 1 3 35 0 0 0
18 8 1 4 35 0 0 0
18 8 1 5 35 0 0 0
18 8 1 6 35 0 0 0
18 8 1 7 35 0 0 0
18 8 1 8 35 0 0 0
18 8 1 9 35 0 0 0
18 8 1 10 35 0 0 0
18 8 1 11 35 0 0 0
18 8 1 12 35 0 0 0
18 8 1 13 35 0 0 0
18 8 1 14 35 0 0 0
18 8 1 15 35 0 0 0
18 8 2 0 36 0 0 0
18 8 2 1 36 0 0 0
18 8 2 2 36 0 0 0
18 8 2 3 36 0 0 0
18 8 2 4 36 0 0 0
18 8 2 5 36 0 0 0
18 8 2 6 36 0 0 0
18 8 2 7 36 0 0 0
18 8 2 8 36 0 0 0
18 8 2 9 36 0 0 0
18 8 2 10 36 0 0 0
18 8 2 11 36 0 0 0
18 8 2 12 36 0 0 0
18 8 2 13 36 0 0 0
18 8 2 14 36 0 0 0
18 8 2 15 36 0 0 0
18 8 3 0 37 0 0 0
18 8 3 1 37 0 0 0
18 8 3 2 37 0 0 0
18 8 3 3 37 0 0 0
18 8 3 4 37 0 0 0
18 8 3 5 37 0 0 0
18 8 3 6 37 0 0 0
18 8 3 7 37 0 0 0
18 8 3 8 37 0 0 0
18 8 3 9 37 0 0 0
18 8 3 10 37 0 0 0
18 8 3 11 37 0 0 0
18 8 3 12 37 0 0 0
18 8 3 13 37 0 0 0
18 8 3 14 37 0 0 0
18 8 3 15 37 0 0 0
18 8 4 0 38 0 0 0
18 8 4 1 38 0 0 0
18 8 4 2 38 0 0 0
18 8 4 3 38 0 0 0
18 8 4 4 38 0 0 0
18 8 4 5 38 0 0 0
18 8 4 6 38 0 0 0
18 8 4 7 38 0 0 0
18 8 4 8 38 0 0 0
18 8 4 9 38 0 0 0
18 8 4 10 38 0 0 0
18 8 4 11 38 0 0 0
18 8 4 12 38 0 0 0
18 8 4 13 38 0 0 0
18 8 4 14 38 0 0 0
18 8 4 15 38 0 0 1
18 16 0 0 34 0 1 0
18 16 0 1 34 0 0 0
18 16 0 2 34 0 0 0
18 16 0 3 34 0 0 0
18 16 0 4 34 0 0 0
18 16 0 5 34 0 0 0
18 16 0 6 34 0 0 0
18 16 0 7 34 0 0 0
18 16 0 8 34 0 0 0
18 16 0 9 34 0 0 0
18 16 0 10 34 0 0 0
18 16 0 11 34 0 0 0
18 16 0 12 34 0 0 0
18 16 0 13 34 0 0 0
18 16 0 14 34 0 0 0
18 16 0 15 34 0 0 0
18 16 1 0 35 0 0 0
18 16 1 1 35 0 0 0
18 16 1 2 35 0 0 0
18 16 1 3 35 0 0 0
18 16 1 4 35 0 0 0
18 16 1 5 35 0 0 0
18 16 1 6 35 0 0 0
18 16 1 7 35 0 0 0
18 16 1 8 35 0 0 0
18 16 1 9 35 0 0 0
18 16 1 10 35 0 0 0
18 16 1 11 35 0 0 0
18 16 1 12 35 0 0 0
18 16 1 13 35 0 0 0
18 16 1 14 35 0 0 0
18 16 1 15 35 0 0 0
18 16 2 0 36 0 0 0
18 16 2 1 36 0 0 0
18 16 2 2 36 0 0 0
18 16 2 3 36 0 0 0
18 16 2 4 36 0 0 0
18 16 2 5 36 0 0 0
18 16 2 6 36 0 0 0
18 16 2 7 36 0 0 0
18 16 2 8 36 0 0 0
18 16 2 9 36 0 0 0
18 16 2 10 36 0 0 0
18 16 2 11 36 0 0 0
18 16 2 12 36 0 0 0
18 16 2 13 36 0 0 0
18 16 2 14 36 0 0 0
18 16 2 15 36 0 0 0
18 16 3 0 37 0 0 0
18 16 3 1 37 0 0 0
18 16 3 2 37 0 0 0
18 16 3 3 37 0 0 0
18 16 3 4 37 0 0 0
18 16 3 5 37 0 0 0
18 16 3 6 37 0 0 0
18 16 3 7 37 0 0 0
18 16 3 8 37 0 0 0
18 16 3 9 37 0 0 0
18 16 3 10 37 0 0 0
18 16 3 11 37 0 0 0
18 16 3 12 37 0 0 0
18 16 3 13 37 0 0 0
18 16 3 14 37 0 0 0
18 16 3 15 37 0 0 0
18 16 4 0 38 0 0 0
18 16 4 1 38 0 0 0
18 16 4 2 38 0 0 0
18 16 4 3 38 0 0 0
18 16 4 4 38 0 0 0
18 16 4 5 38 0 0 0
18 16 4 6 38 0 0 0
18 16 4 7 38 0 0 0
18 16 4 8 38 0 0 0
18 16 4 9 38 0 0 0
18 16 4 10 38 0 0 0
18 16 4 11 38 0 0 0
18 16 4 12 38 0 0 0
18 16 4 13 38 0 0 0
18 16 4 14 38 0 0 0
18 16 4 15 38 0 0 1
19 0 0 0 36 0 1 0
19 0 0 1 36 0 0 0
19 0 0 2 36 0 0 0
19 0 0 3 36 0 0 0
19 0 0 4 36 0 0 0
19 0 0 5 36 0 0 0
19 0 0 6 36 0 0 0
19 0 0 7 36 0 0 0
19 0 0 8 36 0 0 0
19 0 0 9 36 0 0 0
19 0 0 10 36 0 0 0
19 0 0 11 36 0 0 0
19 0 0 12 36 0 0 0
19 0 0 13 36 0 0 0
19 0 0 14 36 0 0 0
19 0 0 15 36 0 0 0
19 0 1 0 37 0 0 0
19 0 1 1 37 0 0 0
19 0 1 2 37 0 0 0
19 0 1 3 37 0 0 0
19 0 1 4 37 0 0 0
19 0 1 5 37 0 0 0
19 0 1 6 37 0 0 0
19 0 1 7 37 0 0 0
19 0 1 8 37 0 0 0
19 0 1 9 37 0 0 0
19 0 1 10 37 0 0 0
19 0 1 11 37 0 0 0
19 0 1 12 37 0 0 0
19 0 1 13 37 0 0 0
19 0 1 14 37 0 0 0
19 0 1 15 37 0 0 0
19 0 2 0 38 0 0 0
19 0 2 1 38 0 0 0
19 0 2 2 38 0 0 0
19 0 2 3 38 0 0 0
19 0 2 4 38 0 0 0
19 0 2 5 38 0 0 0
19 0 2 6 38 0 0 0
19 0 2 7 38 0 0 0
19 0 2 8 38 0 0 0
19 0 2 9 38 0 0 0
19 0 2 10 38 0 0 0
19 0 2 11 38 0 0 0
19 0 2 12 38 0 0 0
19 0 2 13 38 0 0 0
19 0 2 14 38 0 0 0
19 0 2 15 38 0 0 0
19 0 3 0 39 0 0 0
19 0 3 1 39 0 0 0
19 0 3 2 39 0 0 0
19 0 3 3 39 0 0 0
19 0 3 4 39 0 0 0
19 0 3 5 39 0 0 0
19 0 3 6 39 0 0 0
19 0 3 7 39 0 0 0
19 0 3 8 39 0 0 0
19 0 3 9 39 0 0 0
19 0 3 10 39 0 0 0
19 0 3 11 39 0 0 0
19 0 3 12 39 0 0 0
19 0 3 13 39 0 0 0
19 0 3 14 39 0 0 0
19 0 3 15 39 0 0 0
19 0 4 0 40 0 0 0
19 0 4 1 40 0 0 0
19 0 4 2 40 0 0 0
19 0 4 3 40 0 0 0
19 0 4 4 40 0 0 0
19 0 4 5 40 0 0 0
19 0 4 6 40 0 0 0
19 0 4 7 40 0 0 0
19 0 4 8 40 0 0 0
19 0 4 9 40 0 0 0
19 0 4 10 40 0 0 0
19 0 4 11 40 0 0 0
19 0 4 12 40 0 0 0
19 0 4 13 40 0 0 0
19 0 4 14 40 0 0 0
19 0 4 15 40 0 0 1
19 8 0 0 36 0 1 0
19 8 0 1 36 0 0 0
19 8 0 2 36 0 0 0
19 8 0 3 36 0 0 0
19 8 0 4 36 0 0 0
19 8 0 5 36 0 0 0
19 8 0 6 36 0 0 0
19 8 0 7 36 0 0 0
19 8 0 8 36 0 0 0
19 8 0 9 36 0 0 0
19 8 0 10 36 0 0 0
19 8 0 11 36 0 0 0
19 8 0 12 36 0 0 0
19 8 0 13 36 0 0 0
19 8 0 14 36 0 0 0
19 8 0 15 36 0 0 0
19 8 1 0 37 0 0 0
19 8 1 1 37 0 0 0
19 8 1 2 37 0 0 0
19 8 1 3 37 0 0 0
19 8 1 4 37 0 0 0
19 8 1 5 37 0 0 0
19 8 1 6 37 0 0 0
19 8 1 7 37 0 0 0
19 8 1 8 37 0 0 0
19 8 1 9 37 0 0 0
19 8 1 10 37 0 0 0
19 8 1 11 37 0 0 0
19 8 1 12 37 0 0 0
19 8 1 13 37 0 0 0
19 8 1 14 37 0 0 0
19 8 1 15 37 0 0 0
19 8 2 0 38 0 0 0
19 8 2 1 38 0 0 0
19 8 2 2 38 0 0 0
19 8 2 3 38 0 0 0
19 8 2 4 38 0 0 0
19 8 2 5 38 0 0 0
19 8 2 6 38 0 0 0
19 8 2 7 38 0 0 0
19 8 2 8 38 0 0 0
19 8 2 9 38 0 0 0
19 8 2 10 38 0 0 0
19 8 2 11 38 0 0 0
19 8 2 12 38 0 0 0
19 8 2 13 38 0 0 0
19 8 2 14 38 0 0 0
19 8 2 15 38 0 0 0
19 8 3 0 39 0 0 0
19 8 3 1 39 0 0 0
19 8 3 2 39 0 0 0
19 8 3 3 39 0 0 0
19 8 3 4 39 0 0 0
19 8 3 5 39 0 0 0
19 8 3 6 39 0 0 0
19 8 3 7 39 0 0 0
19 8 3 8 39 0 0 0
19 8 3 9 39 0 0 0
19 8 3 10 39 0 0 0
19 8 3 11 39 0 0 0
19 8 3 12 39 0 0 0
19 8 3 13 39 0 0 0
19 8 3 14 39 0 0 0
19 8 3 15 39 0 0 0
19 8 4 0 40 0 0 0
19 8 4 1 40 0 0 0
19 8 4 2 40 0 0 0
19 8 4 3 40 0 0 0
19 8 4 4 40 0 0 0
19 8 4 5 40 0 0 0
19 8 4 6 40 0 0 0
19 8 4 7 40 0 0 0
19 8 4 8 40 0 0 0
19 8 4 9 40 0 0 0
19 8 4 10 40 0 0 0
19 8 4 11 40 0 0 0
19 8 4 12 40 0 0 0
19 8 4 13 40 0 0 0
19 8 4 14 40 0 0 0
19 8 4 15 40 0 0 1
19 16 0 0 36 0 1 0
19 16 0 1 36 0 0 0
19 16 0 2 36 0 0 0
19 16 0 3 36 0 0 0
19 16 0 4 36 0 0 0
19 16 0 5 36 0 0 0
19 16 0 6 36 0 0 0
19 16 0 7 36 0 0 0
19 16 0 8 36 0 0 0
19 16 0 9 36 0 0 0
19 16 0 10 36 0 0 0
19 16 0 11 36 0 0 0
19 16 0 12 36 0 0 0
19 16 0 13 36 0 0 0
19 16 0 14 36 0 0 0
19 16 0 15 36 0 0 0
19 16 1 0 37 0 0 0
19 16 1 1 37 0 0 0
19 16 1 2 37 0 0 0
19 16 1 3 37 0 0 0
19 16 1 4 37 0 0 0
19 16 1 5 37 0 0 0
19 16 1 6 37 0 0 0
19 16 1 7 37 0 0 0
19 16 1 8 37 0 0 0
19 16 1 9 37 0 0 0
19 16 1 10 37 0 0 0
19 16 1 11 37 0 0 0
19 16 1 12 37 0 0 0
19 16 1 13 37 0 0 0
19 16 1 14 37 0 0 0
19 16 1 15 37 0 0 0
19 16 2 0 38 0 0 0
19 16 2 1 38 0 0 0
19 16 2 2 38 0 0 0
19 16 2 3 38 0 0 0
19 16 2 4 38 0 0 0
19 16 2 5 38 0 0 0
19 16 2 6 38 0 0 0
19 16 2 7 38 0 0 0
19 16 2 8 38 0 0 0
19 16 2 9 38 0 0 0
19 16 2 10 38 0 0 0
19 16 2 11 38 0 0 0
19 16 2 12 38 0 0 0
19 16 2 13 38 0 0 0
19 16 2 14 38 0 0 0
19 16 2 15 38 0 0 0
19 16 3 0 39 0 0 0
19 16 3 1 39 0 0 0
19 16 3 2 39 0 0 0
19 16 3 3 39 0 0 0
19 16 3 4 39 0 0 0
19 16 3 5 39 0 0 0
19 16 3 6 39 0 0 0
19 16 3 7 39 0 0 0
19 16 3 8 39 0 0 0
19 16 3 9 39 0 0 0
19 16 3 10 39 0 0 0
19 16 3 11 39 0 0 0
19 16 3 12 39 0 0 0
19 16 3 13 39 0 0 0
19 16 3 14 39 0 0 0
19 16 3 15 39 0 0 0
19 16 4 0 40 0 0 0
19 16 4 1 40 0 0 0
19 16 4 2 40 0 0 0
19 16 4 3 40 0 0 0
19 16 4 4 40 0 0 0
19 16 4 5 40 0 0 0
19 16 4 6 40 0 0 0
19 16 4 7 40 0 0 0
19 16 4 8 40 0 0 0
19 16 4 9 40 0 0 0
19 16 4 10 40 0 0 0
19 16 4 11 40 0 0 0
19 16 4 12 40 0 0 0
19 16 4 13 40 0 0 0
19 16 4 14 40 0 0 0
19 16 4 15 40 0 0 1
20 0 0 0 38 0 1 0
20 0 0 1 38 0 0 0
20 0 0 2 38 0 0 0
20 0 0 3 38 0 0 0
20 0 0 4 38 0 0 0
20 0 0 5 38 0 0 0
20 0 0 6 38 0 0 0
20 0 0 7 38 0 0 0
20 0 0 8 38 0 0 0
