0 0 0 0 0 0
0 0 0 0 1 0
0 1 0 0 0 1
0 1 0 0 1 1
0 -1 0 0 0 -1
0 -1 0 0 1 0
0 127 0 0 0 127
0 127 0 0 1 127
0 -128 0 0 0 -127
0 -128 0 0 1 0
0 170 0 0 0 127
0 170 0 0 1 127
0 -170 0 0 0 -127
0 -170 0 0 1 0
0 255 0 0 0 127
0 255 0 0 1 127
0 -256 0 0 0 -127
0 -256 0 0 1 0
1 0 0 0 0 0
1 0 0 0 1 0
1 1 0 0 0 1
1 1 0 0 1 1
1 -1 0 0 0 -1
1 -1 0 0 1 0
1 127 0 0 0 127
1 127 0 0 1 127
1 -128 0 0 0 -127
1 -128 0 0 1 0
1 170 0 0 0 127
1 170 0 0 1 127
1 -170 0 0 0 -127
1 -170 0 0 1 0
1 255 0 0 0 127
1 255 0 0 1 127
1 -256 0 0 0 -127
1 -256 0 0 1 0
-1 0 0 0 0 0
-1 0 0 0 1 0
-1 1 0 0 0 1
-1 1 0 0 1 1
-1 -1 0 0 0 -1
-1 -1 0 0 1 0
-1 127 0 0 0 127
-1 127 0 0 1 127
-1 -128 0 0 0 -127
-1 -128 0 0 1 0
-1 170 0 0 0 127
-1 170 0 0 1 127
-1 -170 0 0 0 -127
-1 -170 0 0 1 0
-1 255 0 0 0 127
-1 255 0 0 1 127
-1 -256 0 0 0 -127
-1 -256 0 0 1 0
127 0 0 0 0 0
127 0 0 0 1 0
127 1 0 0 0 1
127 1 0 0 1 1
127 -1 0 0 0 -1
127 -1 0 0 1 0
127 127 0 0 0 127
127 127 0 0 1 127
127 -128 0 0 0 -127
127 -128 0 0 1 0
127 170 0 0 0 127
127 170 0 0 1 127
127 -170 0 0 0 -127
127 -170 0 0 1 0
127 255 0 0 0 127
127 255 0 0 1 127
127 -256 0 0 0 -127
127 -256 0 0 1 0
-127 0 0 0 0 0
-127 0 0 0 1 0
-127 1 0 0 0 1
-127 1 0 0 1 1
-127 -1 0 0 0 -1
-127 -1 0 0 1 0
-127 127 0 0 0 127
-127 127 0 0 1 127
-127 -128 0 0 0 -127
-127 -128 0 0 1 0
-127 170 0 0 0 127
-127 170 0 0 1 127
-127 -170 0 0 0 -127
-127 -170 0 0 1 0
-127 255 0 0 0 127
-127 255 0 0 1 127
-127 -256 0 0 0 -127
-127 -256 0 0 1 0
128 0 0 0 0 0
128 0 0 0 1 0
128 1 0 0 0 1
128 1 0 0 1 1
128 -1 0 0 0 -1
128 -1 0 0 1 0
128 127 0 0 0 127
128 127 0 0 1 127
128 -128 0 0 0 -127
128 -128 0 0 1 0
128 170 0 0 0 127
128 170 0 0 1 127
128 -170 0 0 0 -127
128 -170 0 0 1 0
128 255 0 0 0 127
128 255 0 0 1 127
128 -256 0 0 0 -127
128 -256 0 0 1 0
-128 0 0 0 0 0
-128 0 0 0 1 0
-128 1 0 0 0 1
-128 1 0 0 1 1
-128 -1 0 0 0 -1
-128 -1 0 0 1 0
-128 127 0 0 0 127
-128 127 0 0 1 127
-128 -128 0 0 0 -127
-128 -128 0 0 1 0
-128 170 0 0 0 127
-128 170 0 0 1 127
-128 -170 0 0 0 -127
-128 -170 0 0 1 0
-128 255 0 0 0 127
-128 255 0 0 1 127
-128 -256 0 0 0 -127
-128 -256 0 0 1 0
255 0 0 0 0 0
255 0 0 0 1 0
255 1 0 0 0 1
255 1 0 0 1 1
255 -1 0 0 0 -1
255 -1 0 0 1 0
255 127 0 0 0 127
255 127 0 0 1 127
255 -128 0 0 0 -127
255 -128 0 0 1 0
255 170 0 0 0 127
255 170 0 0 1 127
255 -170 0 0 0 -127
255 -170 0 0 1 0
255 255 0 0 0 127
255 255 0 0 1 127
255 -256 0 0 0 -127
255 -256 0 0 1 0
-255 0 0 0 0 0
-255 0 0 0 1 0
-255 1 0 0 0 1
-255 1 0 0 1 1
-255 -1 0 0 0 -1
-255 -1 0 0 1 0
-255 127 0 0 0 127
-255 127 0 0 1 127
-255 -128 0 0 0 -127
-255 -128 0 0 1 0
-255 170 0 0 0 127
-255 170 0 0 1 127
-255 -170 0 0 0 -127
-255 -170 0 0 1 0
-255 255 0 0 0 127
-255 255 0 0 1 127
-255 -256 0 0 0 -127
-255 -256 0 0 1 0
1048576 0 0 0 0 0
1048576 0 0 0 1 0
1048576 1 0 0 0 1
1048576 1 0 0 1 1
1048576 -1 0 0 0 -1
1048576 -1 0 0 1 0
1048576 127 0 0 0 127
1048576 127 0 0 1 127
1048576 -128 0 0 0 -127
1048576 -128 0 0 1 0
1048576 170 0 0 0 127
1048576 170 0 0 1 127
1048576 -170 0 0 0 -127
1048576 -170 0 0 1 0
1048576 255 0 0 0 127
1048576 255 0 0 1 127
1048576 -256 0 0 0 -127
1048576 -256 0 0 1 0
-1048576 0 0 0 0 0
-1048576 0 0 0 1 0
-1048576 1 0 0 0 1
-1048576 1 0 0 1 1
-1048576 -1 0 0 0 -1
-1048576 -1 0 0 1 0
-1048576 127 0 0 0 127
-1048576 127 0 0 1 127
-1048576 -128 0 0 0 -127
-1048576 -128 0 0 1 0
-1048576 170 0 0 0 127
-1048576 170 0 0 1 127
-1048576 -170 0 0 0 -127
-1048576 -170 0 0 1 0
-1048576 255 0 0 0 127
-1048576 255 0 0 1 127
-1048576 -256 0 0 0 -127
-1048576 -256 0 0 1 0
8388607 0 0 0 0 0
8388607 0 0 0 1 0
8388607 1 0 0 0 1
8388607 1 0 0 1 1
8388607 -1 0 0 0 -1
8388607 -1 0 0 1 0
8388607 127 0 0 0 127
8388607 127 0 0 1 127
8388607 -128 0 0 0 -127
8388607 -128 0 0 1 0
8388607 170 0 0 0 127
8388607 170 0 0 1 127
8388607 -170 0 0 0 -127
8388607 -170 0 0 1 0
8388607 255 0 0 0 127
8388607 255 0 0 1 127
8388607 -256 0 0 0 -127
8388607 -256 0 0 1 0
-8388607 0 0 0 0 0
-8388607 0 0 0 1 0
-8388607 1 0 0 0 1
-8388607 1 0 0 1 1
-8388607 -1 0 0 0 -1
-8388607 -1 0 0 1 0
-8388607 127 0 0 0 127
-8388607 127 0 0 1 127
-8388607 -128 0 0 0 -127
-8388607 -128 0 0 1 0
-8388607 170 0 0 0 127
-8388607 170 0 0 1 127
-8388607 -170 0 0 0 -127
-8388607 -170 0 0 1 0
-8388607 255 0 0 0 127
-8388607 255 0 0 1 127
-8388607 -256 0 0 0 -127
-8388607 -256 0 0 1 0
0 0 1 0 0 0
0 0 1 0 1 0
0 1 1 0 0 1
0 1 1 0 1 1
0 -1 1 0 0 -1
0 -1 1 0 1 0
0 127 1 0 0 127
0 127 1 0 1 127
0 -128 1 0 0 -127
0 -128 1 0 1 0
0 170 1 0 0 127
0 170 1 0 1 127
0 -170 1 0 0 -127
0 -170 1 0 1 0
0 255 1 0 0 127
0 255 1 0 1 127
0 -256 1 0 0 -127
0 -256 1 0 1 0
1 0 1 0 0 1
1 0 1 0 1 1
1 1 1 0 0 2
1 1 1 0 1 2
1 -1 1 0 0 0
1 -1 1 0 1 0
1 127 1 0 0 127
1 127 1 0 1 127
1 -128 1 0 0 -127
1 -128 1 0 1 0
1 170 1 0 0 127
1 170 1 0 1 127
1 -170 1 0 0 -127
1 -170 1 0 1 0
1 255 1 0 0 127
1 255 1 0 1 127
1 -256 1 0 0 -127
1 -256 1 0 1 0
-1 0 1 0 0 -1
-1 0 1 0 1 0
-1 1 1 0 0 0
-1 1 1 0 1 0
-1 -1 1 0 0 -2
-1 -1 1 0 1 0
-1 127 1 0 0 126
-1 127 1 0 1 126
-1 -128 1 0 0 -127
-1 -128 1 0 1 0
-1 170 1 0 0 127
-1 170 1 0 1 127
-1 -170 1 0 0 -127
-1 -170 1 0 1 0
-1 255 1 0 0 127
-1 255 1 0 1 127
-1 -256 1 0 0 -127
-1 -256 1 0 1 0
127 0 1 0 0 127
127 0 1 0 1 127
127 1 1 0 0 127
127 1 1 0 1 127
127 -1 1 0 0 126
127 -1 1 0 1 126
127 127 1 0 0 127
127 127 1 0 1 127
127 -128 1 0 0 -1
127 -128 1 0 1 0
127 170 1 0 0 127
127 170 1 0 1 127
127 -170 1 0 0 -43
127 -170 1 0 1 0
127 255 1 0 0 127
127 255 1 0 1 127
127 -256 1 0 0 -127
127 -256 1 0 1 0
-127 0 1 0 0 -127
-127 0 1 0 1 0
-127 1 1 0 0 -126
-127 1 1 0 1 0
-127 -1 1 0 0 -127
-127 -1 1 0 1 0
-127 127 1 0 0 0
-127 127 1 0 1 0
-127 -128 1 0 0 -127
-127 -128 1 0 1 0
-127 170 1 0 0 43
-127 170 1 0 1 43
-127 -170 1 0 0 -127
-127 -170 1 0 1 0
-127 255 1 0 0 127
-127 255 1 0 1 127
-127 -256 1 0 0 -127
-127 -256 1 0 1 0
128 0 1 0 0 127
128 0 1 0 1 127
128 1 1 0 0 127
128 1 1 0 1 127
128 -1 1 0 0 127
128 -1 1 0 1 127
128 127 1 0 0 127
128 127 1 0 1 127
128 -128 1 0 0 0
128 -128 1 0 1 0
128 170 1 0 0 127
128 170 1 0 1 127
128 -170 1 0 0 -42
128 -170 1 0 1 0
128 255 1 0 0 127
128 255 1 0 1 127
128 -256 1 0 0 -127
128 -256 1 0 1 0
-128 0 1 0 0 -127
-128 0 1 0 1 0
-128 1 1 0 0 -127
-128 1 1 0 1 0
-128 -1 1 0 0 -127
-128 -1 1 0 1 0
-128 127 1 0 0 -1
-128 127 1 0 1 0
-128 -128 1 0 0 -127
-128 -128 1 0 1 0
-128 170 1 0 0 42
-128 170 1 0 1 42
-128 -170 1 0 0 -127
-128 -170 1 0 1 0
-128 255 1 0 0 127
-128 255 1 0 1 127
-128 -256 1 0 0 -127
-128 -256 1 0 1 0
255 0 1 0 0 127
255 0 1 0 1 127
255 1 1 0 0 127
255 1 1 0 1 127
255 -1 1 0 0 127
255 -1 1 0 1 127
255 127 1 0 0 127
255 127 1 0 1 127
255 -128 1 0 0 127
255 -128 1 0 1 127
255 170 1 0 0 127
255 170 1 0 1 127
255 -170 1 0 0 85
255 -170 1 0 1 85
255 255 1 0 0 127
255 255 1 0 1 127
255 -256 1 0 0 -1
255 -256 1 0 1 0
-255 0 1 0 0 -127
-255 0 1 0 1 0
-255 1 1 0 0 -127
-255 1 1 0 1 0
-255 -1 1 0 0 -127
-255 -1 1 0 1 0
-255 127 1 0 0 -127
-255 127 1 0 1 0
-255 -128 1 0 0 -127
-255 -128 1 0 1 0
-255 170 1 0 0 -85
-255 170 1 0 1 0
-255 -170 1 0 0 -127
-255 -170 1 0 1 0
-255 255 1 0 0 0
-255 255 1 0 1 0
-255 -256 1 0 0 -127
-255 -256 1 0 1 0
1048576 0 1 0 0 127
1048576 0 1 0 1 127
1048576 1 1 0 0 127
1048576 1 1 0 1 127
1048576 -1 1 0 0 127
1048576 -1 1 0 1 127
1048576 127 1 0 0 127
1048576 127 1 0 1 127
1048576 -128 1 0 0 127
1048576 -128 1 0 1 127
1048576 170 1 0 0 127
1048576 170 1 0 1 127
1048576 -170 1 0 0 127
1048576 -170 1 0 1 127
1048576 255 1 0 0 127
1048576 255 1 0 1 127
1048576 -256 1 0 0 127
1048576 -256 1 0 1 127
-1048576 0 1 0 0 -127
-1048576 0 1 0 1 0
-1048576 1 1 0 0 -127
-1048576 1 1 0 1 0
-1048576 -1 1 0 0 -127
-1048576 -1 1 0 1 0
-1048576 127 1 0 0 -127
-1048576 127 1 0 1 0
-1048576 -128 1 0 0 -127
-1048576 -128 1 0 1 0
-1048576 170 1 0 0 -127
-1048576 170 1 0 1 0
-1048576 -170 1 0 0 -127
-1048576 -170 1 0 1 0
-1048576 255 1 0 0 -127
-1048576 255 1 0 1 0
-1048576 -256 1 0 0 -127
-1048576 -256 1 0 1 0
8388607 0 1 0 0 127
8388607 0 1 0 1 127
8388607 1 1 0 0 127
8388607 1 1 0 1 127
8388607 -1 1 0 0 127
8388607 -1 1 0 1 127
8388607 127 1 0 0 127
8388607 127 1 0 1 127
8388607 -128 1 0 0 127
8388607 -128 1 0 1 127
8388607 170 1 0 0 127
8388607 170 1 0 1 127
8388607 -170 1 0 0 127
8388607 -170 1 0 1 127
8388607 255 1 0 0 127
8388607 255 1 0 1 127
8388607 -256 1 0 0 127
8388607 -256 1 0 1 127
-8388607 0 1 0 0 -127
-8388607 0 1 0 1 0
-8388607 1 1 0 0 -127
-8388607 1 1 0 1 0
-8388607 -1 1 0 0 -127
-8388607 -1 1 0 1 0
-8388607 127 1 0 0 -127
-8388607 127 1 0 1 0
-8388607 -128 1 0 0 -127
-8388607 -128 1 0 1 0
-8388607 170 1 0 0 -127
-8388607 170 1 0 1 0
-8388607 -170 1 0 0 -127
-8388607 -170 1 0 1 0
-8388607 255 1 0 0 -127
-8388607 255 1 0 1 0
-8388607 -256 1 0 0 -127
-8388607 -256 1 0 1 0
0 0 2 0 0 0
0 0 2 0 1 0
0 1 2 0 0 1
0 1 2 0 1 1
0 -1 2 0 0 -1
0 -1 2 0 1 0
0 127 2 0 0 127
0 127 2 0 1 127
0 -128 2 0 0 -127
0 -128 2 0 1 0
0 170 2 0 0 127
0 170 2 0 1 127
0 -170 2 0 0 -127
0 -170 2 0 1 0
0 255 2 0 0 127
0 255 2 0 1 127
0 -256 2 0 0 -127
0 -256 2 0 1 0
1 0 2 0 0 2
1 0 2 0 1 2
1 1 2 0 0 3
1 1 2 0 1 3
1 -1 2 0 0 1
1 -1 2 0 1 1
1 127 2 0 0 127
1 127 2 0 1 127
1 -128 2 0 0 -126
1 -128 2 0 1 0
1 170 2 0 0 127
1 170 2 0 1 127
1 -170 2 0 0 -127
1 -170 2 0 1 0
1 255 2 0 0 127
1 255 2 0 1 127
1 -256 2 0 0 -127
1 -256 2 0 1 0
-1 0 2 0 0 -2
-1 0 2 0 1 0
-1 1 2 0 0 -1
-1 1 2 0 1 0
-1 -1 2 0 0 -3
-1 -1 2 0 1 0
-1 127 2 0 0 125
-1 127 2 0 1 125
-1 -128 2 0 0 -127
-1 -128 2 0 1 0
-1 170 2 0 0 127
-1 170 2 0 1 127
-1 -170 2 0 0 -127
-1 -170 2 0 1 0
-1 255 2 0 0 127
-1 255 2 0 1 127
-1 -256 2 0 0 -127
-1 -256 2 0 1 0
127 0 2 0 0 127
127 0 2 0 1 127
127 1 2 0 0 127
127 1 2 0 1 127
127 -1 2 0 0 127
127 -1 2 0 1 127
127 127 2 0 0 127
127 127 2 0 1 127
127 -128 2 0 0 126
127 -128 2 0 1 126
127 170 2 0 0 127
127 170 2 0 1 127
127 -170 2 0 0 84
127 -170 2 0 1 84
127 255 2 0 0 127
127 255 2 0 1 127
127 -256 2 0 0 -2
127 -256 2 0 1 0
-127 0 2 0 0 -127
-127 0 2 0 1 0
-127 1 2 0 0 -127
-127 1 2 0 1 0
-127 -1 2 0 0 -127
-127 -1 2 0 1 0
-127 127 2 0 0 -127
-127 127 2 0 1 0
-127 -128 2 0 0 -127
-127 -128 2 0 1 0
-127 170 2 0 0 -84
-127 170 2 0 1 0
-127 -170 2 0 0 -127
-127 -170 2 0 1 0
-127 255 2 0 0 1
-127 255 2 0 1 1
-127 -256 2 0 0 -127
-127 -256 2 0 1 0
128 0 2 0 0 127
128 0 2 0 1 127
128 1 2 0 0 127
128 1 2 0 1 127
128 -1 2 0 0 127
128 -1 2 0 1 127
128 127 2 0 0 127
128 127 2 0 1 127
128 -128 2 0 0 127
128 -128 2 0 1 127
128 170 2 0 0 127
128 170 2 0 1 127
128 -170 2 0 0 86
128 -170 2 0 1 86
128 255 2 0 0 127
128 255 2 0 1 127
128 -256 2 0 0 0
128 -256 2 0 1 0
-128 0 2 0 0 -127
-128 0 2 0 1 0
-128 1 2 0 0 -127
-128 1 2 0 1 0
-128 -1 2 0 0 -127
-128 -1 2 0 1 0
-128 127 2 0 0 -127
-128 127 2 0 1 0
-128 -128 2 0 0 -127
-128 -128 2 0 1 0
-128 170 2 0 0 -86
-128 170 2 0 1 0
-128 -170 2 0 0 -127
-128 -170 2 0 1 0
-128 255 2 0 0 -1
-128 255 2 0 1 0
-128 -256 2 0 0 -127
-128 -256 2 0 1 0
255 0 2 0 0 127
255 0 2 0 1 127
255 1 2 0 0 127
255 1 2 0 1 127
255 -1 2 0 0 127
255 -1 2 0 1 127
255 127 2 0 0 127
255 127 2 0 1 127
255 -128 2 0 0 127
255 -128 2 0 1 127
255 170 2 0 0 127
255 170 2 0 1 127
255 -170 2 0 0 127
255 -170 2 0 1 127
255 255 2 0 0 127
255 255 2 0 1 127
255 -256 2 0 0 127
255 -256 2 0 1 127
-255 0 2 0 0 -127
-255 0 2 0 1 0
-255 1 2 0 0 -127
-255 1 2 0 1 0
-255 -1 2 0 0 -127
-255 -1 2 0 1 0
-255 127 2 0 0 -127
-255 127 2 0 1 0
-255 -128 2 0 0 -127
-255 -128 2 0 1 0
-255 170 2 0 0 -127
-255 170 2 0 1 0
-255 -170 2 0 0 -127
-255 -170 2 0 1 0
-255 255 2 0 0 -127
-255 255 2 0 1 0
-255 -256 2 0 0 -127
-255 -256 2 0 1 0
1048576 0 2 0 0 127
1048576 0 2 0 1 127
1048576 1 2 0 0 127
1048576 1 2 0 1 127
1048576 -1 2 0 0 127
1048576 -1 2 0 1 127
1048576 127 2 0 0 127
1048576 127 2 0 1 127
1048576 -128 2 0 0 127
1048576 -128 2 0 1 127
1048576 170 2 0 0 127
1048576 170 2 0 1 127
1048576 -170 2 0 0 127
1048576 -170 2 0 1 127
1048576 255 2 0 0 127
1048576 255 2 0 1 127
1048576 -256 2 0 0 127
1048576 -256 2 0 1 127
-1048576 0 2 0 0 -127
-1048576 0 2 0 1 0
-1048576 1 2 0 0 -127
-1048576 1 2 0 1 0
-1048576 -1 2 0 0 -127
-1048576 -1 2 0 1 0
-1048576 127 2 0 0 -127
-1048576 127 2 0 1 0
-1048576 -128 2 0 0 -127
-1048576 -128 2 0 1 0
-1048576 170 2 0 0 -127
-1048576 170 2 0 1 0
-1048576 -170 2 0 0 -127
-1048576 -170 2 0 1 0
-1048576 255 2 0 0 -127
-1048576 255 2 0 1 0
-1048576 -256 2 0 0 -127
-1048576 -256 2 0 1 0
8388607 0 2 0 0 127
8388607 0 2 0 1 127
8388607 1 2 0 0 127
8388607 1 2 0 1 127
8388607 -1 2 0 0 127
8388607 -1 2 0 1 127
8388607 127 2 0 0 127
8388607 127 2 0 1 127
8388607 -128 2 0 0 127
8388607 -128 2 0 1 127
8388607 170 2 0 0 127
8388607 170 2 0 1 127
8388607 -170 2 0 0 127
8388607 -170 2 0 1 127
8388607 255 2 0 0 127
8388607 255 2 0 1 127
8388607 -256 2 0 0 127
8388607 -256 2 0 1 127
-8388607 0 2 0 0 -127
-8388607 0 2 0 1 0
-8388607 1 2 0 0 -127
-8388607 1 2 0 1 0
-8388607 -1 2 0 0 -127
-8388607 -1 2 0 1 0
-8388607 127 2 0 0 -127
-8388607 127 2 0 1 0
-8388607 -128 2 0 0 -127
-8388607 -128 2 0 1 0
-8388607 170 2 0 0 -127
-8388607 170 2 0 1 0
-8388607 -170 2 0 0 -127
-8388607 -170 2 0 1 0
-8388607 255 2 0 0 -127
-8388607 255 2 0 1 0
-8388607 -256 2 0 0 -127
-8388607 -256 2 0 1 0
0 0 2047 0 0 0
0 0 2047 0 1 0
0 1 2047 0 0 1
0 1 2047 0 1 1
0 -1 2047 0 0 -1
0 -1 2047 0 1 0
0 127 2047 0 0 127
0 127 2047 0 1 127
0 -128 2047 0 0 -127
0 -128 2047 0 1 0
0 170 2047 0 0 127
0 170 2047 0 1 127
0 -170 2047 0 0 -127
0 -170 2047 0 1 0
0 255 2047 0 0 127
0 255 2047 0 1 127
0 -256 2047 0 0 -127
0 -256 2047 0 1 0
1 0 2047 0 0 127
1 0 2047 0 1 127
1 1 2047 0 0 127
1 1 2047 0 1 127
1 -1 2047 0 0 127
1 -1 2047 0 1 127
1 127 2047 0 0 127
1 127 2047 0 1 127
1 -128 2047 0 0 127
1 -128 2047 0 1 127
1 170 2047 0 0 127
1 170 2047 0 1 127
1 -170 2047 0 0 127
1 -170 2047 0 1 127
1 255 2047 0 0 127
1 255 2047 0 1 127
1 -256 2047 0 0 127
1 -256 2047 0 1 127
-1 0 2047 0 0 -127
-1 0 2047 0 1 0
-1 1 2047 0 0 -127
-1 1 2047 0 1 0
-1 -1 2047 0 0 -127
-1 -1 2047 0 1 0
-1 127 2047 0 0 -127
-1 127 2047 0 1 0
-1 -128 2047 0 0 -127
-1 -128 2047 0 1 0
-1 170 2047 0 0 -127
-1 170 2047 0 1 0
-1 -170 2047 0 0 -127
-1 -170 2047 0 1 0
-1 255 2047 0 0 -127
-1 255 2047 0 1 0
-1 -256 2047 0 0 -127
-1 -256 2047 0 1 0
127 0 2047 0 0 127
127 0 2047 0 1 127
127 1 2047 0 0 127
127 1 2047 0 1 127
127 -1 2047 0 0 127
127 -1 2047 0 1 127
127 127 2047 0 0 127
127 127 2047 0 1 127
127 -128 2047 0 0 127
127 -128 2047 0 1 127
127 170 2047 0 0 127
127 170 2047 0 1 127
127 -170 2047 0 0 127
127 -170 2047 0 1 127
127 255 2047 0 0 127
127 255 2047 0 1 127
127 -256 2047 0 0 127
127 -256 2047 0 1 127
-127 0 2047 0 0 -127
-127 0 2047 0 1 0
-127 1 2047 0 0 -127
-127 1 2047 0 1 0
-127 -1 2047 0 0 -127
-127 -1 2047 0 1 0
-127 127 2047 0 0 -127
-127 127 2047 0 1 0
-127 -128 2047 0 0 -127
-127 -128 2047 0 1 0
-127 170 2047 0 0 -127
-127 170 2047 0 1 0
-127 -170 2047 0 0 -127
-127 -170 2047 0 1 0
-127 255 2047 0 0 -127
-127 255 2047 0 1 0
-127 -256 2047 0 0 -127
-127 -256 2047 0 1 0
128 0 2047 0 0 127
128 0 2047 0 1 127
128 1 2047 0 0 127
128 1 2047 0 1 127
128 -1 2047 0 0 127
128 -1 2047 0 1 127
128 127 2047 0 0 127
128 127 2047 0 1 127
128 -128 2047 0 0 127
128 -128 2047 0 1 127
128 170 2047 0 0 127
128 170 2047 0 1 127
128 -170 2047 0 0 127
128 -170 2047 0 1 127
128 255 2047 0 0 127
128 255 2047 0 1 127
128 -256 2047 0 0 127
128 -256 2047 0 1 127
-128 0 2047 0 0 -127
-128 0 2047 0 1 0
-128 1 2047 0 0 -127
-128 1 2047 0 1 0
-128 -1 2047 0 0 -127
-128 -1 2047 0 1 0
-128 127 2047 0 0 -127
-128 127 2047 0 1 0
-128 -128 2047 0 0 -127
-128 -128 2047 0 1 0
-128 170 2047 0 0 -127
-128 170 2047 0 1 0
-128 -170 2047 0 0 -127
-128 -170 2047 0 1 0
-128 255 2047 0 0 -127
-128 255 2047 0 1 0
-128 -256 2047 0 0 -127
-128 -256 2047 0 1 0
255 0 2047 0 0 127
255 0 2047 0 1 127
255 1 2047 0 0 127
255 1 2047 0 1 127
255 -1 2047 0 0 127
255 -1 2047 0 1 127
255 127 2047 0 0 127
255 127 2047 0 1 127
255 -128 2047 0 0 127
255 -128 2047 0 1 127
255 170 2047 0 0 127
255 170 2047 0 1 127
255 -170 2047 0 0 127
255 -170 2047 0 1 127
255 255 2047 0 0 127
255 255 2047 0 1 127
255 -256 2047 0 0 127
255 -256 2047 0 1 127
-255 0 2047 0 0 -127
-255 0 2047 0 1 0
-255 1 2047 0 0 -127
-255 1 2047 0 1 0
-255 -1 2047 0 0 -127
-255 -1 2047 0 1 0
-255 127 2047 0 0 -127
-255 127 2047 0 1 0
-255 -128 2047 0 0 -127
-255 -128 2047 0 1 0
-255 170 2047 0 0 -127
-255 170 2047 0 1 0
-255 -170 2047 0 0 -127
-255 -170 2047 0 1 0
-255 255 2047 0 0 -127
-255 255 2047 0 1 0
-255 -256 2047 0 0 -127
-255 -256 2047 0 1 0
1048576 0 2047 0 0 127
1048576 0 2047 0 1 127
1048576 1 2047 0 0 127
1048576 1 2047 0 1 127
1048576 -1 2047 0 0 127
1048576 -1 2047 0 1 127
1048576 127 2047 0 0 127
1048576 127 2047 0 1 127
1048576 -128 2047 0 0 127
1048576 -128 2047 0 1 127
1048576 170 2047 0 0 127
1048576 170 2047 0 1 127
1048576 -170 2047 0 0 127
1048576 -170 2047 0 1 127
1048576 255 2047 0 0 127
1048576 255 2047 0 1 127
1048576 -256 2047 0 0 127
1048576 -256 2047 0 1 127
-1048576 0 2047 0 0 -127
-1048576 0 2047 0 1 0
-1048576 1 2047 0 0 -127
-1048576 1 2047 0 1 0
-1048576 -1 2047 0 0 -127
-1048576 -1 2047 0 1 0
-1048576 127 2047 0 0 -127
-1048576 127 2047 0 1 0
-1048576 -128 2047 0 0 -127
-1048576 -128 2047 0 1 0
-1048576 170 2047 0 0 -127
-1048576 170 2047 0 1 0
-1048576 -170 2047 0 0 -127
-1048576 -170 2047 0 1 0
-1048576 255 2047 0 0 -127
-1048576 255 2047 0 1 0
-1048576 -256 2047 0 0 -127
-1048576 -256 2047 0 1 0
8388607 0 2047 0 0 127
8388607 0 2047 0 1 127
8388607 1 2047 0 0 127
8388607 1 2047 0 1 127
8388607 -1 2047 0 0 127
8388607 -1 2047 0 1 127
8388607 127 2047 0 0 127
8388607 127 2047 0 1 127
8388607 -128 2047 0 0 127
8388607 -128 2047 0 1 127
8388607 170 2047 0 0 127
8388607 170 2047 0 1 127
8388607 -170 2047 0 0 127
8388607 -170 2047 0 1 127
8388607 255 2047 0 0 127
8388607 255 2047 0 1 127
8388607 -256 2047 0 0 127
8388607 -256 2047 0 1 127
-8388607 0 2047 0 0 -127
-8388607 0 2047 0 1 0
-8388607 1 2047 0 0 -127
-8388607 1 2047 0 1 0
-8388607 -1 2047 0 0 -127
-8388607 -1 2047 0 1 0
-8388607 127 2047 0 0 -127
-8388607 127 2047 0 1 0
-8388607 -128 2047 0 0 -127
-8388607 -128 2047 0 1 0
-8388607 170 2047 0 0 -127
-8388607 170 2047 0 1 0
-8388607 -170 2047 0 0 -127
-8388607 -170 2047 0 1 0
-8388607 255 2047 0 0 -127
-8388607 255 2047 0 1 0
-8388607 -256 2047 0 0 -127
-8388607 -256 2047 0 1 0
0 0 0 1 0 0
0 0 0 1 1 0
0 1 0 1 0 1
0 1 0 1 1 1
0 -1 0 1 0 -1
0 -1 0 1 1 0
0 127 0 1 0 127
0 127 0 1 1 127
0 -128 0 1 0 -127
0 -128 0 1 1 0
0 170 0 1 0 127
0 170 0 1 1 127
0 -170 0 1 0 -127
0 -170 0 1 1 0
0 255 0 1 0 127
0 255 0 1 1 127
0 -256 0 1 0 -127
0 -256 0 1 1 0
1 0 0 1 0 0
1 0 0 1 1 0
1 1 0 1 0 1
1 1 0 1 1 1
1 -1 0 1 0 -1
1 -1 0 1 1 0
1 127 0 1 0 127
1 127 0 1 1 127
1 -128 0 1 0 -127
1 -128 0 1 1 0
1 170 0 1 0 127
1 170 0 1 1 127
1 -170 0 1 0 -127
1 -170 0 1 1 0
1 255 0 1 0 127
1 255 0 1 1 127
1 -256 0 1 0 -127
1 -256 0 1 1 0
-1 0 0 1 0 0
-1 0 0 1 1 0
-1 1 0 1 0 1
-1 1 0 1 1 1
-1 -1 0 1 0 -1
-1 -1 0 1 1 0
-1 127 0 1 0 127
-1 127 0 1 1 127
-1 -128 0 1 0 -127
-1 -128 0 1 1 0
-1 170 0 1 0 127
-1 170 0 1 1 127
-1 -170 0 1 0 -127
-1 -170 0 1 1 0
-1 255 0 1 0 127
-1 255 0 1 1 127
-1 -256 0 1 0 -127
-1 -256 0 1 1 0
127 0 0 1 0 0
127 0 0 1 1 0
127 1 0 1 0 1
127 1 0 1 1 1
127 -1 0 1 0 -1
127 -1 0 1 1 0
127 127 0 1 0 127
127 127 0 1 1 127
127 -128 0 1 0 -127
127 -128 0 1 1 0
127 170 0 1 0 127
127 170 0 1 1 127
127 -170 0 1 0 -127
127 -170 0 1 1 0
127 255 0 1 0 127
127 255 0 1 1 127
127 -256 0 1 0 -127
127 -256 0 1 1 0
-127 0 0 1 0 0
-127 0 0 1 1 0
-127 1 0 1 0 1
-127 1 0 1 1 1
-127 -1 0 1 0 -1
-127 -1 0 1 1 0
-127 127 0 1 0 127
-127 127 0 1 1 127
-127 -128 0 1 0 -127
-127 -128 0 1 1 0
-127 170 0 1 0 127
-127 170 0 1 1 127
-127 -170 0 1 0 -127
-127 -170 0 1 1 0
-127 255 0 1 0 127
-127 255 0 1 1 127
-127 -256 0 1 0 -127
-127 -256 0 1 1 0
128 0 0 1 0 0
128 0 0 1 1 0
128 1 0 1 0 1
128 1 0 1 1 1
128 -1 0 1 0 -1
128 -1 0 1 1 0
128 127 0 1 0 127
128 127 0 1 1 127
128 -128 0 1 0 -127
128 -128 0 1 1 0
128 170 0 1 0 127
128 170 0 1 1 127
128 -170 0 1 0 -127
128 -170 0 1 1 0
128 255 0 1 0 127
128 255 0 1 1 127
128 -256 0 1 0 -127
128 -256 0 1 1 0
-128 0 0 1 0 0
-128 0 0 1 1 0
-128 1 0 1 0 1
-128 1 0 1 1 1
-128 -1 0 1 0 -1
-128 -1 0 1 1 0
-128 127 0 1 0 127
-128 127 0 1 1 127
-128 -128 0 1 0 -127
-128 -128 0 1 1 0
-128 170 0 1 0 127
-128 170 0 1 1 127
-128 -170 0 1 0 -127
-128 -170 0 1 1 0
-128 255 0 1 0 127
-128 255 0 1 1 127
-128 -256 0 1 0 -127
-128 -256 0 1 1 0
255 0 0 1 0 0
255 0 0 1 1 0
255 1 0 1 0 1
255 1 0 1 1 1
255 -1 0 1 0 -1
255 -1 0 1 1 0
255 127 0 1 0 127
255 127 0 1 1 127
255 -128 0 1 0 -127
255 -128 0 1 1 0
255 170 0 1 0 127
255 170 0 1 1 127
255 -170 0 1 0 -127
255 -170 0 1 1 0
255 255 0 1 0 127
255 255 0 1 1 127
255 -256 0 1 0 -127
255 -256 0 1 1 0
-255 0 0 1 0 0
-255 0 0 1 1 0
-255 1 0 1 0 1
-255 1 0 1 1 1
-255 -1 0 1 0 -1
-255 -1 0 1 1 0
-255 127 0 1 0 127
-255 127 0 1 1 127
-255 -128 0 1 0 -127
-255 -128 0 1 1 0
-255 170 0 1 0 127
-255 170 0 1 1 127
-255 -170 0 1 0 -127
-255 -170 0 1 1 0
-255 255 0 1 0 127
-255 255 0 1 1 127
-255 -256 0 1 0 -127
-255 -256 0 1 1 0
1048576 0 0 1 0 0
1048576 0 0 1 1 0
1048576 1 0 1 0 1
1048576 1 0 1 1 1
1048576 -1 0 1 0 -1
1048576 -1 0 1 1 0
1048576 127 0 1 0 127
1048576 127 0 1 1 127
1048576 -128 0 1 0 -127
1048576 -128 0 1 1 0
1048576 170 0 1 0 127
1048576 170 0 1 1 127
1048576 -170 0 1 0 -127
1048576 -170 0 1 1 0
1048576 255 0 1 0 127
1048576 255 0 1 1 127
1048576 -256 0 1 0 -127
1048576 -256 0 1 1 0
-1048576 0 0 1 0 0
-1048576 0 0 1 1 0
-1048576 1 0 1 0 1
-1048576 1 0 1 1 1
-1048576 -1 0 1 0 -1
-1048576 -1 0 1 1 0
-1048576 127 0 1 0 127
-1048576 127 0 1 1 127
-1048576 -128 0 1 0 -127
-1048576 -128 0 1 1 0
-1048576 170 0 1 0 127
-1048576 170 0 1 1 127
-1048576 -170 0 1 0 -127
-1048576 -170 0 1 1 0
-1048576 255 0 1 0 127
-1048576 255 0 1 1 127
-1048576 -256 0 1 0 -127
-1048576 -256 0 1 1 0
8388607 0 0 1 0 0
8388607 0 0 1 1 0
8388607 1 0 1 0 1
8388607 1 0 1 1 1
8388607 -1 0 1 0 -1
8388607 -1 0 1 1 0
8388607 127 0 1 0 127
8388607 127 0 1 1 127
8388607 -128 0 1 0 -127
8388607 -128 0 1 1 0
8388607 170 0 1 0 127
8388607 170 0 1 1 127
8388607 -170 0 1 0 -127
8388607 -170 0 1 1 0
8388607 255 0 1 0 127
8388607 255 0 1 1 127
8388607 -256 0 1 0 -127
8388607 -256 0 1 1 0
-8388607 0 0 1 0 0
-8388607 0 0 1 1 0
-8388607 1 0 1 0 1
-8388607 1 0 1 1 1
-8388607 -1 0 1 0 -1
-8388607 -1 0 1 1 0
-8388607 127 0 1 0 127
-8388607 127 0 1 1 127
-8388607 -128 0 1 0 -127
-8388607 -128 0 1 1 0
-8388607 170 0 1 0 127
-8388607 170 0 1 1 127
-8388607 -170 0 1 0 -127
-8388607 -170 0 1 1 0
-8388607 255 0 1 0 127
-8388607 255 0 1 1 127
-8388607 -256 0 1 0 -127
-8388607 -256 0 1 1 0
0 0 1 1 0 0
0 0 1 1 1 0
0 1 1 1 0 1
0 1 1 1 1 1
0 -1 1 1 0 -1
0 -1 1 1 1 0
0 127 1 1 0 127
0 127 1 1 1 127
0 -128 1 1 0 -127
0 -128 1 1 1 0
0 170 1 1 0 127
0 170 1 1 1 127
0 -170 1 1 0 -127
0 -170 1 1 1 0
0 255 1 1 0 127
0 255 1 1 1 127
0 -256 1 1 0 -127
0 -256 1 1 1 0
1 0 1 1 0 1
1 0 1 1 1 1
1 1 1 1 0 2
1 1 1 1 1 2
1 -1 1 1 0 0
1 -1 1 1 1 0
1 127 1 1 0 127
1 127 1 1 1 127
1 -128 1 1 0 -127
1 -128 1 1 1 0
1 170 1 1 0 127
1 170 1 1 1 127
1 -170 1 1 0 -127
1 -170 1 1 1 0
1 255 1 1 0 127
1 255 1 1 1 127
1 -256 1 1 0 -127
1 -256 1 1 1 0
-1 0 1 1 0 0
-1 0 1 1 1 0
-1 1 1 1 0 1
-1 1 1 1 1 1
-1 -1 1 1 0 -1
-1 -1 1 1 1 0
-1 127 1 1 0 127
-1 127 1 1 1 127
-1 -128 1 1 0 -127
-1 -128 1 1 1 0
-1 170 1 1 0 127
-1 170 1 1 1 127
-1 -170 1 1 0 -127
-1 -170 1 1 1 0
-1 255 1 1 0 127
-1 255 1 1 1 127
-1 -256 1 1 0 -127
-1 -256 1 1 1 0
127 0 1 1 0 64
127 0 1 1 1 64
127 1 1 1 0 65
127 1 1 1 1 65
127 -1 1 1 0 63
127 -1 1 1 1 63
127 127 1 1 0 127
127 127 1 1 1 127
127 -128 1 1 0 -64
127 -128 1 1 1 0
127 170 1 1 0 127
127 170 1 1 1 127
127 -170 1 1 0 -106
127 -170 1 1 1 0
127 255 1 1 0 127
127 255 1 1 1 127
127 -256 1 1 0 -127
127 -256 1 1 1 0
-127 0 1 1 0 -63
-127 0 1 1 1 0
-127 1 1 1 0 -62
-127 1 1 1 1 0
-127 -1 1 1 0 -64
-127 -1 1 1 1 0
-127 127 1 1 0 64
-127 127 1 1 1 64
-127 -128 1 1 0 -127
-127 -128 1 1 1 0
-127 170 1 1 0 107
-127 170 1 1 1 107
-127 -170 1 1 0 -127
-127 -170 1 1 1 0
-127 255 1 1 0 127
-127 255 1 1 1 127
-127 -256 1 1 0 -127
-127 -256 1 1 1 0
128 0 1 1 0 64
128 0 1 1 1 64
128 1 1 1 0 65
128 1 1 1 1 65
128 -1 1 1 0 63
128 -1 1 1 1 63
128 127 1 1 0 127
128 127 1 1 1 127
128 -128 1 1 0 -64
128 -128 1 1 1 0
128 170 1 1 0 127
128 170 1 1 1 127
128 -170 1 1 0 -106
128 -170 1 1 1 0
128 255 1 1 0 127
128 255 1 1 1 127
128 -256 1 1 0 -127
128 -256 1 1 1 0
-128 0 1 1 0 -64
-128 0 1 1 1 0
-128 1 1 1 0 -63
-128 1 1 1 1 0
-128 -1 1 1 0 -65
-128 -1 1 1 1 0
-128 127 1 1 0 63
-128 127 1 1 1 63
-128 -128 1 1 0 -127
-128 -128 1 1 1 0
-128 170 1 1 0 106
-128 170 1 1 1 106
-128 -170 1 1 0 -127
-128 -170 1 1 1 0
-128 255 1 1 0 127
-128 255 1 1 1 127
-128 -256 1 1 0 -127
-128 -256 1 1 1 0
255 0 1 1 0 127
255 0 1 1 1 127
255 1 1 1 0 127
255 1 1 1 1 127
255 -1 1 1 0 127
255 -1 1 1 1 127
255 127 1 1 0 127
255 127 1 1 1 127
255 -128 1 1 0 0
255 -128 1 1 1 0
255 170 1 1 0 127
255 170 1 1 1 127
255 -170 1 1 0 -42
255 -170 1 1 1 0
255 255 1 1 0 127
255 255 1 1 1 127
255 -256 1 1 0 -127
255 -256 1 1 1 0
-255 0 1 1 0 -127
-255 0 1 1 1 0
-255 1 1 1 0 -126
-255 1 1 1 1 0
-255 -1 1 1 0 -127
-255 -1 1 1 1 0
-255 127 1 1 0 0
-255 127 1 1 1 0
-255 -128 1 1 0 -127
-255 -128 1 1 1 0
-255 170 1 1 0 43
-255 170 1 1 1 43
-255 -170 1 1 0 -127
-255 -170 1 1 1 0
-255 255 1 1 0 127
-255 255 1 1 1 127
-255 -256 1 1 0 -127
-255 -256 1 1 1 0
1048576 0 1 1 0 127
1048576 0 1 1 1 127
1048576 1 1 1 0 127
1048576 1 1 1 1 127
1048576 -1 1 1 0 127
1048576 -1 1 1 1 127
1048576 127 1 1 0 127
1048576 127 1 1 1 127
1048576 -128 1 1 0 127
1048576 -128 1 1 1 127
1048576 170 1 1 0 127
1048576 170 1 1 1 127
1048576 -170 1 1 0 127
1048576 -170 1 1 1 127
1048576 255 1 1 0 127
1048576 255 1 1 1 127
1048576 -256 1 1 0 127
1048576 -256 1 1 1 127
-1048576 0 1 1 0 -127
-1048576 0 1 1 1 0
-1048576 1 1 1 0 -127
-1048576 1 1 1 1 0
-1048576 -1 1 1 0 -127
-1048576 -1 1 1 1 0
-1048576 127 1 1 0 -127
-1048576 127 1 1 1 0
-1048576 -128 1 1 0 -127
-1048576 -128 1 1 1 0
-1048576 170 1 1 0 -127
-1048576 170 1 1 1 0
-1048576 -170 1 1 0 -127
-1048576 -170 1 1 1 0
-1048576 255 1 1 0 -127
-1048576 255 1 1 1 0
-1048576 -256 1 1 0 -127
-1048576 -256 1 1 1 0
8388607 0 1 1 0 127
8388607 0 1 1 1 127
8388607 1 1 1 0 127
8388607 1 1 1 1 127
8388607 -1 1 1 0 127
8388607 -1 1 1 1 127
8388607 127 1 1 0 127
8388607 127 1 1 1 127
8388607 -128 1 1 0 127
8388607 -128 1 1 1 127
8388607 170 1 1 0 127
8388607 170 1 1 1 127
8388607 -170 1 1 0 127
8388607 -170 1 1 1 127
8388607 255 1 1 0 127
8388607 255 1 1 1 127
8388607 -256 1 1 0 127
8388607 -256 1 1 1 127
-8388607 0 1 1 0 -127
-8388607 0 1 1 1 0
-8388607 1 1 1 0 -127
-8388607 1 1 1 1 0
-8388607 -1 1 1 0 -127
-8388607 -1 1 1 1 0
-8388607 127 1 1 0 -127
-8388607 127 1 1 1 0
-8388607 -128 1 1 0 -127
-8388607 -128 1 1 1 0
-8388607 170 1 1 0 -127
-8388607 170 1 1 1 0
-8388607 -170 1 1 0 -127
-8388607 -170 1 1 1 0
-8388607 255 1 1 0 -127
-8388607 255 1 1 1 0
-8388607 -256 1 1 0 -127
-8388607 -256 1 1 1 0
0 0 2 1 0 0
0 0 2 1 1 0
0 1 2 1 0 1
0 1 2 1 1 1
0 -1 2 1 0 -1
0 -1 2 1 1 0
0 127 2 1 0 127
0 127 2 1 1 127
0 -128 2 1 0 -127
0 -128 2 1 1 0
0 170 2 1 0 127
0 170 2 1 1 127
0 -170 2 1 0 -127
0 -170 2 1 1 0
0 255 2 1 0 127
0 255 2 1 1 127
0 -256 2 1 0 -127
0 -256 2 1 1 0
1 0 2 1 0 1
1 0 2 1 1 1
1 1 2 1 0 2
1 1 2 1 1 2
1 -1 2 1 0 0
1 -1 2 1 1 0
1 127 2 1 0 127
1 127 2 1 1 127
1 -128 2 1 0 -127
1 -128 2 1 1 0
1 170 2 1 0 127
1 170 2 1 1 127
1 -170 2 1 0 -127
1 -170 2 1 1 0
1 255 2 1 0 127
1 255 2 1 1 127
1 -256 2 1 0 -127
1 -256 2 1 1 0
-1 0 2 1 0 -1
-1 0 2 1 1 0
-1 1 2 1 0 0
-1 1 2 1 1 0
-1 -1 2 1 0 -2
-1 -1 2 1 1 0
-1 127 2 1 0 126
-1 127 2 1 1 126
-1 -128 2 1 0 -127
-1 -128 2 1 1 0
-1 170 2 1 0 127
-1 170 2 1 1 127
-1 -170 2 1 0 -127
-1 -170 2 1 1 0
-1 255 2 1 0 127
-1 255 2 1 1 127
-1 -256 2 1 0 -127
-1 -256 2 1 1 0
127 0 2 1 0 127
127 0 2 1 1 127
127 1 2 1 0 127
127 1 2 1 1 127
127 -1 2 1 0 126
127 -1 2 1 1 126
127 127 2 1 0 127
127 127 2 1 1 127
127 -128 2 1 0 -1
127 -128 2 1 1 0
127 170 2 1 0 127
127 170 2 1 1 127
127 -170 2 1 0 -43
127 -170 2 1 1 0
127 255 2 1 0 127
127 255 2 1 1 127
127 -256 2 1 0 -127
127 -256 2 1 1 0
-127 0 2 1 0 -127
-127 0 2 1 1 0
-127 1 2 1 0 -126
-127 1 2 1 1 0
-127 -1 2 1 0 -127
-127 -1 2 1 1 0
-127 127 2 1 0 0
-127 127 2 1 1 0
-127 -128 2 1 0 -127
-127 -128 2 1 1 0
-127 170 2 1 0 43
-127 170 2 1 1 43
-127 -170 2 1 0 -127
-127 -170 2 1 1 0
-127 255 2 1 0 127
-127 255 2 1 1 127
-127 -256 2 1 0 -127
-127 -256 2 1 1 0
128 0 2 1 0 127
128 0 2 1 1 127
128 1 2 1 0 127
128 1 2 1 1 127
128 -1 2 1 0 127
128 -1 2 1 1 127
128 127 2 1 0 127
128 127 2 1 1 127
128 -128 2 1 0 0
128 -128 2 1 1 0
128 170 2 1 0 127
128 170 2 1 1 127
128 -170 2 1 0 -42
128 -170 2 1 1 0
128 255 2 1 0 127
128 255 2 1 1 127
128 -256 2 1 0 -127
128 -256 2 1 1 0
-128 0 2 1 0 -127
-128 0 2 1 1 0
-128 1 2 1 0 -127
-128 1 2 1 1 0
-128 -1 2 1 0 -127
-128 -1 2 1 1 0
-128 127 2 1 0 -1
-128 127 2 1 1 0
-128 -128 2 1 0 -127
-128 -128 2 1 1 0
-128 170 2 1 0 42
-128 170 2 1 1 42
-128 -170 2 1 0 -127
-128 -170 2 1 1 0
-128 255 2 1 0 127
-128 255 2 1 1 127
-128 -256 2 1 0 -127
-128 -256 2 1 1 0
255 0 2 1 0 127
255 0 2 1 1 127
255 1 2 1 0 127
255 1 2 1 1 127
255 -1 2 1 0 127
255 -1 2 1 1 127
255 127 2 1 0 127
255 127 2 1 1 127
255 -128 2 1 0 127
255 -128 2 1 1 127
255 170 2 1 0 127
255 170 2 1 1 127
255 -170 2 1 0 85
255 -170 2 1 1 85
255 255 2 1 0 127
255 255 2 1 1 127
255 -256 2 1 0 -1
255 -256 2 1 1 0
-255 0 2 1 0 -127
-255 0 2 1 1 0
-255 1 2 1 0 -127
-255 1 2 1 1 0
-255 -1 2 1 0 -127
-255 -1 2 1 1 0
-255 127 2 1 0 -127
-255 127 2 1 1 0
-255 -128 2 1 0 -127
-255 -128 2 1 1 0
-255 170 2 1 0 -85
-255 170 2 1 1 0
-255 -170 2 1 0 -127
-255 -170 2 1 1 0
-255 255 2 1 0 0
-255 255 2 1 1 0
-255 -256 2 1 0 -127
-255 -256 2 1 1 0
1048576 0 2 1 0 127
1048576 0 2 1 1 127
1048576 1 2 1 0 127
1048576 1 2 1 1 127
1048576 -1 2 1 0 127
1048576 -1 2 1 1 127
1048576 127 2 1 0 127
1048576 127 2 1 1 127
1048576 -128 2 1 0 127
1048576 -128 2 1 1 127
1048576 170 2 1 0 127
1048576 170 2 1 1 127
1048576 -170 2 1 0 127
1048576 -170 2 1 1 127
1048576 255 2 1 0 127
1048576 255 2 1 1 127
1048576 -256 2 1 0 127
1048576 -256 2 1 1 127
-1048576 0 2 1 0 -127
-1048576 0 2 1 1 0
-1048576 1 2 1 0 -127
-1048576 1 2 1 1 0
-1048576 -1 2 1 0 -127
-1048576 -1 2 1 1 0
-1048576 127 2 1 0 -127
-1048576 127 2 1 1 0
-1048576 -128 2 1 0 -127
-1048576 -128 2 1 1 0
-1048576 170 2 1 0 -127
-1048576 170 2 1 1 0
-1048576 -170 2 1 0 -127
-1048576 -170 2 1 1 0
-1048576 255 2 1 0 -127
-1048576 255 2 1 1 0
-1048576 -256 2 1 0 -127
-1048576 -256 2 1 1 0
8388607 0 2 1 0 127
8388607 0 2 1 1 127
8388607 1 2 1 0 127
8388607 1 2 1 1 127
8388607 -1 2 1 0 127
8388607 -1 2 1 1 127
8388607 127 2 1 0 127
8388607 127 2 1 1 127
8388607 -128 2 1 0 127
8388607 -128 2 1 1 127
8388607 170 2 1 0 127
8388607 170 2 1 1 127
8388607 -170 2 1 0 127
8388607 -170 2 1 1 127
8388607 255 2 1 0 127
8388607 255 2 1 1 127
8388607 -256 2 1 0 127
8388607 -256 2 1 1 127
-8388607 0 2 1 0 -127
-8388607 0 2 1 1 0
-8388607 1 2 1 0 -127
-8388607 1 2 1 1 0
-8388607 -1 2 1 0 -127
-8388607 -1 2 1 1 0
-8388607 127 2 1 0 -127
-8388607 127 2 1 1 0
-8388607 -128 2 1 0 -127
-8388607 -128 2 1 1 0
-8388607 170 2 1 0 -127
-8388607 170 2 1 1 0
-8388607 -170 2 1 0 -127
-8388607 -170 2 1 1 0
-8388607 255 2 1 0 -127
-8388607 255 2 1 1 0
-8388607 -256 2 1 0 -127
-8388607 -256 2 1 1 0
0 0 2047 1 0 0
0 0 2047 1 1 0
0 1 2047 1 0 1
0 1 2047 1 1 1
0 -1 2047 1 0 -1
0 -1 2047 1 1 0
0 127 2047 1 0 127
0 127 2047 1 1 127
0 -128 2047 1 0 -127
0 -128 2047 1 1 0
0 170 2047 1 0 127
0 170 2047 1 1 127
0 -170 2047 1 0 -127
0 -170 2047 1 1 0
0 255 2047 1 0 127
0 255 2047 1 1 127
0 -256 2047 1 0 -127
0 -256 2047 1 1 0
1 0 2047 1 0 127
1 0 2047 1 1 127
1 1 2047 1 0 127
1 1 2047 1 1 127
1 -1 2047 1 0 127
1 -1 2047 1 1 127
1 127 2047 1 0 127
1 127 2047 1 1 127
1 -128 2047 1 0 127
1 -128 2047 1 1 127
1 170 2047 1 0 127
1 170 2047 1 1 127
1 -170 2047 1 0 127
1 -170 2047 1 1 127
1 255 2047 1 0 127
1 255 2047 1 1 127
1 -256 2047 1 0 127
1 -256 2047 1 1 127
-1 0 2047 1 0 -127
-1 0 2047 1 1 0
-1 1 2047 1 0 -127
-1 1 2047 1 1 0
-1 -1 2047 1 0 -127
-1 -1 2047 1 1 0
-1 127 2047 1 0 -127
-1 127 2047 1 1 0
-1 -128 2047 1 0 -127
-1 -128 2047 1 1 0
-1 170 2047 1 0 -127
-1 170 2047 1 1 0
-1 -170 2047 1 0 -127
-1 -170 2047 1 1 0
-1 255 2047 1 0 -127
-1 255 2047 1 1 0
-1 -256 2047 1 0 -127
-1 -256 2047 1 1 0
127 0 2047 1 0 127
127 0 2047 1 1 127
127 1 2047 1 0 127
127 1 2047 1 1 127
127 -1 2047 1 0 127
127 -1 2047 1 1 127
127 127 2047 1 0 127
127 127 2047 1 1 127
127 -128 2047 1 0 127
127 -128 2047 1 1 127
127 170 2047 1 0 127
127 170 2047 1 1 127
127 -170 2047 1 0 127
127 -170 2047 1 1 127
127 255 2047 1 0 127
127 255 2047 1 1 127
127 -256 2047 1 0 127
127 -256 2047 1 1 127
-127 0 2047 1 0 -127
-127 0 2047 1 1 0
-127 1 2047 1 0 -127
-127 1 2047 1 1 0
-127 -1 2047 1 0 -127
-127 -1 2047 1 1 0
-127 127 2047 1 0 -127
-127 127 2047 1 1 0
-127 -128 2047 1 0 -127
-127 -128 2047 1 1 0
-127 170 2047 1 0 -127
-127 170 2047 1 1 0
-127 -170 2047 1 0 -127
-127 -170 2047 1 1 0
-127 255 2047 1 0 -127
-127 255 2047 1 1 0
-127 -256 2047 1 0 -127
-127 -256 2047 1 1 0
128 0 2047 1 0 127
128 0 2047 1 1 127
128 1 2047 1 0 127
128 1 2047 1 1 127
128 -1 2047 1 0 127
128 -1 2047 1 1 127
128 127 2047 1 0 127
128 127 2047 1 1 127
128 -128 2047 1 0 127
128 -128 2047 1 1 127
128 170 2047 1 0 127
128 170 2047 1 1 127
128 -170 2047 1 0 127
128 -170 2047 1 1 127
128 255 2047 1 0 127
128 255 2047 1 1 127
128 -256 2047 1 0 127
128 -256 2047 1 1 127
-128 0 2047 1 0 -127
-128 0 2047 1 1 0
-128 1 2047 1 0 -127
-128 1 2047 1 1 0
-128 -1 2047 1 0 -127
-128 -1 2047 1 1 0
-128 127 2047 1 0 -127
-128 127 2047 1 1 0
-128 -128 2047 1 0 -127
-128 -128 2047 1 1 0
-128 170 2047 1 0 -127
-128 170 2047 1 1 0
-128 -170 2047 1 0 -127
-128 -170 2047 1 1 0
-128 255 2047 1 0 -127
-128 255 2047 1 1 0
-128 -256 2047 1 0 -127
-128 -256 2047 1 1 0
255 0 2047 1 0 127
255 0 2047 1 1 127
255 1 2047 1 0 127
255 1 2047 1 1 127
255 -1 2047 1 0 127
255 -1 2047 1 1 127
255 127 2047 1 0 127
255 127 2047 1 1 127
255 -128 2047 1 0 127
255 -128 2047 1 1 127
255 170 2047 1 0 127
255 170 2047 1 1 127
255 -170 2047 1 0 127
255 -170 2047 1 1 127
255 255 2047 1 0 127
255 255 2047 1 1 127
255 -256 2047 1 0 127
255 -256 2047 1 1 127
-255 0 2047 1 0 -127
-255 0 2047 1 1 0
-255 1 2047 1 0 -127
-255 1 2047 1 1 0
-255 -1 2047 1 0 -127
-255 -1 2047 1 1 0
-255 127 2047 1 0 -127
-255 127 2047 1 1 0
-255 -128 2047 1 0 -127
-255 -128 2047 1 1 0
-255 170 2047 1 0 -127
-255 170 2047 1 1 0
-255 -170 2047 1 0 -127
-255 -170 2047 1 1 0
-255 255 2047 1 0 -127
-255 255 2047 1 1 0
-255 -256 2047 1 0 -127
-255 -256 2047 1 1 0
1048576 0 2047 1 0 127
1048576 0 2047 1 1 127
1048576 1 2047 1 0 127
1048576 1 2047 1 1 127
1048576 -1 2047 1 0 127
1048576 -1 2047 1 1 127
1048576 127 2047 1 0 127
1048576 127 2047 1 1 127
1048576 -128 2047 1 0 127
1048576 -128 2047 1 1 127
1048576 170 2047 1 0 127
1048576 170 2047 1 1 127
1048576 -170 2047 1 0 127
1048576 -170 2047 1 1 127
1048576 255 2047 1 0 127
1048576 255 2047 1 1 127
1048576 -256 2047 1 0 127
1048576 -256 2047 1 1 127
-1048576 0 2047 1 0 -127
-1048576 0 2047 1 1 0
-1048576 1 2047 1 0 -127
-1048576 1 2047 1 1 0
-1048576 -1 2047 1 0 -127
-1048576 -1 2047 1 1 0
-1048576 127 2047 1 0 -127
-1048576 127 2047 1 1 0
-1048576 -128 2047 1 0 -127
-1048576 -128 2047 1 1 0
-1048576 170 2047 1 0 -127
-1048576 170 2047 1 1 0
-1048576 -170 2047 1 0 -127
-1048576 -170 2047 1 1 0
-1048576 255 2047 1 0 -127
-1048576 255 2047 1 1 0
-1048576 -256 2047 1 0 -127
-1048576 -256 2047 1 1 0
8388607 0 2047 1 0 127
8388607 0 2047 1 1 127
8388607 1 2047 1 0 127
8388607 1 2047 1 1 127
8388607 -1 2047 1 0 127
8388607 -1 2047 1 1 127
8388607 127 2047 1 0 127
8388607 127 2047 1 1 127
8388607 -128 2047 1 0 127
8388607 -128 2047 1 1 127
8388607 170 2047 1 0 127
8388607 170 2047 1 1 127
8388607 -170 2047 1 0 127
8388607 -170 2047 1 1 127
8388607 255 2047 1 0 127
8388607 255 2047 1 1 127
8388607 -256 2047 1 0 127
8388607 -256 2047 1 1 127
-8388607 0 2047 1 0 -127
-8388607 0 2047 1 1 0
-8388607 1 2047 1 0 -127
-8388607 1 2047 1 1 0
-8388607 -1 2047 1 0 -127
-8388607 -1 2047 1 1 0
-8388607 127 2047 1 0 -127
-8388607 127 2047 1 1 0
-8388607 -128 2047 1 0 -127
-8388607 -128 2047 1 1 0
-8388607 170 2047 1 0 -127
-8388607 170 2047 1 1 0
-8388607 -170 2047 1 0 -127
-8388607 -170 2047 1 1 0
-8388607 255 2047 1 0 -127
-8388607 255 2047 1 1 0
-8388607 -256 2047 1 0 -127
-8388607 -256 2047 1 1 0
0 0 0 2 0 0
0 0 0 2 1 0
0 1 0 2 0 1
0 1 0 2 1 1
0 -1 0 2 0 -1
0 -1 0 2 1 0
0 127 0 2 0 127
0 127 0 2 1 127
0 -128 0 2 0 -127
0 -128 0 2 1 0
0 170 0 2 0 127
0 170 0 2 1 127
0 -170 0 2 0 -127
0 -170 0 2 1 0
0 255 0 2 0 127
0 255 0 2 1 127
0 -256 0 2 0 -127
0 -256 0 2 1 0
1 0 0 2 0 0
1 0 0 2 1 0
1 1 0 2 0 1
1 1 0 2 1 1
1 -1 0 2 0 -1
1 -1 0 2 1 0
1 127 0 2 0 127
1 127 0 2 1 127
1 -128 0 2 0 -127
1 -128 0 2 1 0
1 170 0 2 0 127
1 170 0 2 1 127
1 -170 0 2 0 -127
1 -170 0 2 1 0
1 255 0 2 0 127
1 255 0 2 1 127
1 -256 0 2 0 -127
1 -256 0 2 1 0
-1 0 0 2 0 0
-1 0 0 2 1 0
-1 1 0 2 0 1
-1 1 0 2 1 1
-1 -1 0 2 0 -1
-1 -1 0 2 1 0
-1 127 0 2 0 127
-1 127 0 2 1 127
-1 -128 0 2 0 -127
-1 -128 0 2 1 0
-1 170 0 2 0 127
-1 170 0 2 1 127
-1 -170 0 2 0 -127
-1 -170 0 2 1 0
-1 255 0 2 0 127
-1 255 0 2 1 127
-1 -256 0 2 0 -127
-1 -256 0 2 1 0
127 0 0 2 0 0
127 0 0 2 1 0
127 1 0 2 0 1
127 1 0 2 1 1
127 -1 0 2 0 -1
127 -1 0 2 1 0
127 127 0 2 0 127
127 127 0 2 1 127
127 -128 0 2 0 -127
127 -128 0 2 1 0
127 170 0 2 0 127
127 170 0 2 1 127
127 -170 0 2 0 -127
127 -170 0 2 1 0
127 255 0 2 0 127
127 255 0 2 1 127
127 -256 0 2 0 -127
127 -256 0 2 1 0
-127 0 0 2 0 0
-127 0 0 2 1 0
-127 1 0 2 0 1
-127 1 0 2 1 1
-127 -1 0 2 0 -1
-127 -1 0 2 1 0
-127 127 0 2 0 127
-127 127 0 2 1 127
-127 -128 0 2 0 -127
-127 -128 0 2 1 0
-127 170 0 2 0 127
-127 170 0 2 1 127
-127 -170 0 2 0 -127
-127 -170 0 2 1 0
-127 255 0 2 0 127
-127 255 0 2 1 127
-127 -256 0 2 0 -127
-127 -256 0 2 1 0
128 0 0 2 0 0
128 0 0 2 1 0
128 1 0 2 0 1
128 1 0 2 1 1
128 -1 0 2 0 -1
128 -1 0 2 1 0
128 127 0 2 0 127
128 127 0 2 1 127
128 -128 0 2 0 -127
128 -128 0 2 1 0
128 170 0 2 0 127
128 170 0 2 1 127
128 -170 0 2 0 -127
128 -170 0 2 1 0
128 255 0 2 0 127
128 255 0 2 1 127
128 -256 0 2 0 -127
128 -256 0 2 1 0
-128 0 0 2 0 0
-128 0 0 2 1 0
-128 1 0 2 0 1
-128 1 0 2 1 1
-128 -1 0 2 0 -1
-128 -1 0 2 1 0
-128 127 0 2 0 127
-128 127 0 2 1 127
-128 -128 0 2 0 -127
-128 -128 0 2 1 0
-128 170 0 2 0 127
-128 170 0 2 1 127
-128 -170 0 2 0 -127
-128 -170 0 2 1 0
-128 255 0 2 0 127
-128 255 0 2 1 127
-128 -256 0 2 0 -127
-128 -256 0 2 1 0
255 0 0 2 0 0
255 0 0 2 1 0
255 1 0 2 0 1
255 1 0 2 1 1
255 -1 0 2 0 -1
255 -1 0 2 1 0
255 127 0 2 0 127
255 127 0 2 1 127
255 -128 0 2 0 -127
255 -128 0 2 1 0
255 170 0 2 0 127
255 170 0 2 1 127
255 -170 0 2 0 -127
255 -170 0 2 1 0
255 255 0 2 0 127
255 255 0 2 1 127
255 -256 0 2 0 -127
255 -256 0 2 1 0
-255 0 0 2 0 0
-255 0 0 2 1 0
-255 1 0 2 0 1
-255 1 0 2 1 1
-255 -1 0 2 0 -1
-255 -1 0 2 1 0
-255 127 0 2 0 127
-255 127 0 2 1 127
-255 -128 0 2 0 -127
-255 -128 0 2 1 0
-255 170 0 2 0 127
-255 170 0 2 1 127
-255 -170 0 2 0 -127
-255 -170 0 2 1 0
-255 255 0 2 0 127
-255 255 0 2 1 127
-255 -256 0 2 0 -127
-255 -256 0 2 1 0
1048576 0 0 2 0 0
1048576 0 0 2 1 0
1048576 1 0 2 0 1
1048576 1 0 2 1 1
1048576 -1 0 2 0 -1
1048576 -1 0 2 1 0
1048576 127 0 2 0 127
1048576 127 0 2 1 127
1048576 -128 0 2 0 -127
1048576 -128 0 2 1 0
1048576 170 0 2 0 127
1048576 170 0 2 1 127
1048576 -170 0 2 0 -127
1048576 -170 0 2 1 0
1048576 255 0 2 0 127
1048576 255 0 2 1 127
1048576 -256 0 2 0 -127
1048576 -256 0 2 1 0
-1048576 0 0 2 0 0
-1048576 0 0 2 1 0
-1048576 1 0 2 0 1
-1048576 1 0 2 1 1
-1048576 -1 0 2 0 -1
-1048576 -1 0 2 1 0
-1048576 127 0 2 0 127
-1048576 127 0 2 1 127
-1048576 -128 0 2 0 -127
-1048576 -128 0 2 1 0
-1048576 170 0 2 0 127
-1048576 170 0 2 1 127
-1048576 -170 0 2 0 -127
-1048576 -170 0 2 1 0
-1048576 255 0 2 0 127
-1048576 255 0 2 1 127
-1048576 -256 0 2 0 -127
-1048576 -256 0 2 1 0
8388607 0 0 2 0 0
8388607 0 0 2 1 0
8388607 1 0 2 0 1
8388607 1 0 2 1 1
8388607 -1 0 2 0 -1
8388607 -1 0 2 1 0
8388607 127 0 2 0 127
8388607 127 0 2 1 127
8388607 -128 0 2 0 -127
8388607 -128 0 2 1 0
8388607 170 0 2 0 127
8388607 170 0 2 1 127
8388607 -170 0 2 0 -127
8388607 -170 0 2 1 0
8388607 255 0 2 0 127
8388607 255 0 2 1 127
8388607 -256 0 2 0 -127
8388607 -256 0 2 1 0
-8388607 0 0 2 0 0
-8388607 0 0 2 1 0
-8388607 1 0 2 0 1
-8388607 1 0 2 1 1
-8388607 -1 0 2 0 -1
-8388607 -1 0 2 1 0
-8388607 127 0 2 0 127
-8388607 127 0 2 1 127
-8388607 -128 0 2 0 -127
-8388607 -128 0 2 1 0
-8388607 170 0 2 0 127
-8388607 170 0 2 1 127
-8388607 -170 0 2 0 -127
-8388607 -170 0 2 1 0
-8388607 255 0 2 0 127
-8388607 255 0 2 1 127
-8388607 -256 0 2 0 -127
-8388607 -256 0 2 1 0
0 0 1 2 0 0
0 0 1 2 1 0
0 1 1 2 0 1
0 1 1 2 1 1
0 -1 1 2 0 -1
0 -1 1 2 1 0
0 127 1 2 0 127
0 127 1 2 1 127
0 -128 1 2 0 -127
0 -128 1 2 1 0
0 170 1 2 0 127
0 170 1 2 1 127
0 -170 1 2 0 -127
0 -170 1 2 1 0
0 255 1 2 0 127
0 255 1 2 1 127
0 -256 1 2 0 -127
0 -256 1 2 1 0
1 0 1 2 0 0
1 0 1 2 1 0
1 1 1 2 0 1
1 1 1 2 1 1
1 -1 1 2 0 -1
1 -1 1 2 1 0
1 127 1 2 0 127
1 127 1 2 1 127
1 -128 1 2 0 -127
1 -128 1 2 1 0
1 170 1 2 0 127
1 170 1 2 1 127
1 -170 1 2 0 -127
1 -170 1 2 1 0
1 255 1 2 0 127
1 255 1 2 1 127
1 -256 1 2 0 -127
1 -256 1 2 1 0
-1 0 1 2 0 0
-1 0 1 2 1 0
-1 1 1 2 0 1
-1 1 1 2 1 1
-1 -1 1 2 0 -1
-1 -1 1 2 1 0
-1 127 1 2 0 127
-1 127 1 2 1 127
-1 -128 1 2 0 -127
-1 -128 1 2 1 0
-1 170 1 2 0 127
-1 170 1 2 1 127
-1 -170 1 2 0 -127
-1 -170 1 2 1 0
-1 255 1 2 0 127
-1 255 1 2 1 127
-1 -256 1 2 0 -127
-1 -256 1 2 1 0
127 0 1 2 0 32
127 0 1 2 1 32
127 1 1 2 0 33
127 1 1 2 1 33
127 -1 1 2 0 31
127 -1 1 2 1 31
127 127 1 2 0 127
127 127 1 2 1 127
127 -128 1 2 0 -96
127 -128 1 2 1 0
127 170 1 2 0 127
127 170 1 2 1 127
127 -170 1 2 0 -127
127 -170 1 2 1 0
127 255 1 2 0 127
127 255 1 2 1 127
127 -256 1 2 0 -127
127 -256 1 2 1 0
-127 0 1 2 0 -32
-127 0 1 2 1 0
-127 1 1 2 0 -31
-127 1 1 2 1 0
-127 -1 1 2 0 -33
-127 -1 1 2 1 0
-127 127 1 2 0 95
-127 127 1 2 1 95
-127 -128 1 2 0 -127
-127 -128 1 2 1 0
-127 170 1 2 0 127
-127 170 1 2 1 127
-127 -170 1 2 0 -127
-127 -170 1 2 1 0
-127 255 1 2 0 127
-127 255 1 2 1 127
-127 -256 1 2 0 -127
-127 -256 1 2 1 0
128 0 1 2 0 32
128 0 1 2 1 32
128 1 1 2 0 33
128 1 1 2 1 33
128 -1 1 2 0 31
128 -1 1 2 1 31
128 127 1 2 0 127
128 127 1 2 1 127
128 -128 1 2 0 -96
128 -128 1 2 1 0
128 170 1 2 0 127
128 170 1 2 1 127
128 -170 1 2 0 -127
128 -170 1 2 1 0
128 255 1 2 0 127
128 255 1 2 1 127
128 -256 1 2 0 -127
128 -256 1 2 1 0
-128 0 1 2 0 -32
-128 0 1 2 1 0
-128 1 1 2 0 -31
-128 1 1 2 1 0
-128 -1 1 2 0 -33
-128 -1 1 2 1 0
-128 127 1 2 0 95
-128 127 1 2 1 95
-128 -128 1 2 0 -127
-128 -128 1 2 1 0
-128 170 1 2 0 127
-128 170 1 2 1 127
-128 -170 1 2 0 -127
-128 -170 1 2 1 0
-128 255 1 2 0 127
-128 255 1 2 1 127
-128 -256 1 2 0 -127
-128 -256 1 2 1 0
255 0 1 2 0 64
255 0 1 2 1 64
255 1 1 2 0 65
255 1 1 2 1 65
255 -1 1 2 0 63
255 -1 1 2 1 63
255 127 1 2 0 127
255 127 1 2 1 127
255 -128 1 2 0 -64
255 -128 1 2 1 0
255 170 1 2 0 127
255 170 1 2 1 127
255 -170 1 2 0 -106
255 -170 1 2 1 0
255 255 1 2 0 127
255 255 1 2 1 127
255 -256 1 2 0 -127
255 -256 1 2 1 0
-255 0 1 2 0 -64
-255 0 1 2 1 0
-255 1 1 2 0 -63
-255 1 1 2 1 0
-255 -1 1 2 0 -65
-255 -1 1 2 1 0
-255 127 1 2 0 63
-255 127 1 2 1 63
-255 -128 1 2 0 -127
-255 -128 1 2 1 0
-255 170 1 2 0 106
-255 170 1 2 1 106
-255 -170 1 2 0 -127
-255 -170 1 2 1 0
-255 255 1 2 0 127
-255 255 1 2 1 127
-255 -256 1 2 0 -127
-255 -256 1 2 1 0
1048576 0 1 2 0 127
1048576 0 1 2 1 127
1048576 1 1 2 0 127
1048576 1 1 2 1 127
1048576 -1 1 2 0 127
1048576 -1 1 2 1 127
1048576 127 1 2 0 127
1048576 127 1 2 1 127
1048576 -128 1 2 0 127
1048576 -128 1 2 1 127
1048576 170 1 2 0 127
1048576 170 1 2 1 127
1048576 -170 1 2 0 127
1048576 -170 1 2 1 127
1048576 255 1 2 0 127
1048576 255 1 2 1 127
1048576 -256 1 2 0 127
1048576 -256 1 2 1 127
-1048576 0 1 2 0 -127
-1048576 0 1 2 1 0
-1048576 1 1 2 0 -127
-1048576 1 1 2 1 0
-1048576 -1 1 2 0 -127
-1048576 -1 1 2 1 0
-1048576 127 1 2 0 -127
-1048576 127 1 2 1 0
-1048576 -128 1 2 0 -127
-1048576 -128 1 2 1 0
-1048576 170 1 2 0 -127
-1048576 170 1 2 1 0
-1048576 -170 1 2 0 -127
-1048576 -170 1 2 1 0
-1048576 255 1 2 0 -127
-1048576 255 1 2 1 0
-1048576 -256 1 2 0 -127
-1048576 -256 1 2 1 0
8388607 0 1 2 0 127
8388607 0 1 2 1 127
8388607 1 1 2 0 127
8388607 1 1 2 1 127
8388607 -1 1 2 0 127
8388607 -1 1 2 1 127
8388607 127 1 2 0 127
8388607 127 1 2 1 127
8388607 -128 1 2 0 127
8388607 -128 1 2 1 127
8388607 170 1 2 0 127
8388607 170 1 2 1 127
8388607 -170 1 2 0 127
8388607 -170 1 2 1 127
8388607 255 1 2 0 127
8388607 255 1 2 1 127
8388607 -256 1 2 0 127
8388607 -256 1 2 1 127
-8388607 0 1 2 0 -127
-8388607 0 1 2 1 0
-8388607 1 1 2 0 -127
-8388607 1 1 2 1 0
-8388607 -1 1 2 0 -127
-8388607 -1 1 2 1 0
-8388607 127 1 2 0 -127
-8388607 127 1 2 1 0
-8388607 -128 1 2 0 -127
-8388607 -128 1 2 1 0
-8388607 170 1 2 0 -127
-8388607 170 1 2 1 0
-8388607 -170 1 2 0 -127
-8388607 -170 1 2 1 0
-8388607 255 1 2 0 -127
-8388607 255 1 2 1 0
-8388607 -256 1 2 0 -127
-8388607 -256 1 2 1 0
0 0 2 2 0 0
0 0 2 2 1 0
0 1 2 2 0 1
0 1 2 2 1 1
0 -1 2 2 0 -1
0 -1 2 2 1 0
0 127 2 2 0 127
0 127 2 2 1 127
0 -128 2 2 0 -127
0 -128 2 2 1 0
0 170 2 2 0 127
0 170 2 2 1 127
0 -170 2 2 0 -127
0 -170 2 2 1 0
0 255 2 2 0 127
0 255 2 2 1 127
0 -256 2 2 0 -127
0 -256 2 2 1 0
1 0 2 2 0 1
1 0 2 2 1 1
1 1 2 2 0 2
1 1 2 2 1 2
1 -1 2 2 0 0
1 -1 2 2 1 0
1 127 2 2 0 127
1 127 2 2 1 127
1 -128 2 2 0 -127
1 -128 2 2 1 0
1 170 2 2 0 127
1 170 2 2 1 127
1 -170 2 2 0 -127
1 -170 2 2 1 0
1 255 2 2 0 127
1 255 2 2 1 127
1 -256 2 2 0 -127
1 -256 2 2 1 0
-1 0 2 2 0 0
-1 0 2 2 1 0
-1 1 2 2 0 1
-1 1 2 2 1 1
-1 -1 2 2 0 -1
-1 -1 2 2 1 0
-1 127 2 2 0 127
-1 127 2 2 1 127
-1 -128 2 2 0 -127
-1 -128 2 2 1 0
-1 170 2 2 0 127
-1 170 2 2 1 127
-1 -170 2 2 0 -127
-1 -170 2 2 1 0
-1 255 2 2 0 127
-1 255 2 2 1 127
-1 -256 2 2 0 -127
-1 -256 2 2 1 0
127 0 2 2 0 64
127 0 2 2 1 64
127 1 2 2 0 65
127 1 2 2 1 65
127 -1 2 2 0 63
127 -1 2 2 1 63
127 127 2 2 0 127
127 127 2 2 1 127
127 -128 2 2 0 -64
127 -128 2 2 1 0
127 170 2 2 0 127
127 170 2 2 1 127
127 -170 2 2 0 -106
127 -170 2 2 1 0
127 255 2 2 0 127
127 255 2 2 1 127
127 -256 2 2 0 -127
127 -256 2 2 1 0
-127 0 2 2 0 -63
-127 0 2 2 1 0
-127 1 2 2 0 -62
-127 1 2 2 1 0
-127 -1 2 2 0 -64
-127 -1 2 2 1 0
-127 127 2 2 0 64
-127 127 2 2 1 64
-127 -128 2 2 0 -127
-127 -128 2 2 1 0
-127 170 2 2 0 107
-127 170 2 2 1 107
-127 -170 2 2 0 -127
-127 -170 2 2 1 0
-127 255 2 2 0 127
-127 255 2 2 1 127
-127 -256 2 2 0 -127
-127 -256 2 2 1 0
128 0 2 2 0 64
128 0 2 2 1 64
128 1 2 2 0 65
128 1 2 2 1 65
128 -1 2 2 0 63
128 -1 2 2 1 63
128 127 2 2 0 127
128 127 2 2 1 127
128 -128 2 2 0 -64
128 -128 2 2 1 0
128 170 2 2 0 127
128 170 2 2 1 127
128 -170 2 2 0 -106
128 -170 2 2 1 0
128 255 2 2 0 127
128 255 2 2 1 127
128 -256 2 2 0 -127
128 -256 2 2 1 0
-128 0 2 2 0 -64
-128 0 2 2 1 0
-128 1 2 2 0 -63
-128 1 2 2 1 0
-128 -1 2 2 0 -65
-128 -1 2 2 1 0
-128 127 2 2 0 63
-128 127 2 2 1 63
-128 -128 2 2 0 -127
-128 -128 2 2 1 0
-128 170 2 2 0 106
-128 170 2 2 1 106
-128 -170 2 2 0 -127
-128 -170 2 2 1 0
-128 255 2 2 0 127
-128 255 2 2 1 127
-128 -256 2 2 0 -127
-128 -256 2 2 1 0
255 0 2 2 0 127
255 0 2 2 1 127
255 1 2 2 0 127
255 1 2 2 1 127
255 -1 2 2 0 127
255 -1 2 2 1 127
255 127 2 2 0 127
255 127 2 2 1 127
255 -128 2 2 0 0
255 -128 2 2 1 0
255 170 2 2 0 127
255 170 2 2 1 127
255 -170 2 2 0 -42
255 -170 2 2 1 0
255 255 2 2 0 127
255 255 2 2 1 127
255 -256 2 2 0 -127
255 -256 2 2 1 0
-255 0 2 2 0 -127
-255 0 2 2 1 0
-255 1 2 2 0 -126
-255 1 2 2 1 0
-255 -1 2 2 0 -127
-255 -1 2 2 1 0
-255 127 2 2 0 0
-255 127 2 2 1 0
-255 -128 2 2 0 -127
-255 -128 2 2 1 0
-255 170 2 2 0 43
-255 170 2 2 1 43
-255 -170 2 2 0 -127
-255 -170 2 2 1 0
-255 255 2 2 0 127
-255 255 2 2 1 127
-255 -256 2 2 0 -127
-255 -256 2 2 1 0
1048576 0 2 2 0 127
1048576 0 2 2 1 127
1048576 1 2 2 0 127
1048576 1 2 2 1 127
1048576 -1 2 2 0 127
1048576 -1 2 2 1 127
1048576 127 2 2 0 127
1048576 127 2 2 1 127
1048576 -128 2 2 0 127
1048576 -128 2 2 1 127
1048576 170 2 2 0 127
1048576 170 2 2 1 127
1048576 -170 2 2 0 127
1048576 -170 2 2 1 127
1048576 255 2 2 0 127
1048576 255 2 2 1 127
1048576 -256 2 2 0 127
1048576 -256 2 2 1 127
-1048576 0 2 2 0 -127
-1048576 0 2 2 1 0
-1048576 1 2 2 0 -127
-1048576 1 2 2 1 0
-1048576 -1 2 2 0 -127
-1048576 -1 2 2 1 0
-1048576 127 2 2 0 -127
-1048576 127 2 2 1 0
-1048576 -128 2 2 0 -127
-1048576 -128 2 2 1 0
-1048576 170 2 2 0 -127
-1048576 170 2 2 1 0
-1048576 -170 2 2 0 -127
-1048576 -170 2 2 1 0
-1048576 255 2 2 0 -127
-1048576 255 2 2 1 0
-1048576 -256 2 2 0 -127
-1048576 -256 2 2 1 0
8388607 0 2 2 0 127
8388607 0 2 2 1 127
8388607 1 2 2 0 127
8388607 1 2 2 1 127
8388607 -1 2 2 0 127
8388607 -1 2 2 1 127
8388607 127 2 2 0 127
8388607 127 2 2 1 127
8388607 -128 2 2 0 127
8388607 -128 2 2 1 127
8388607 170 2 2 0 127
8388607 170 2 2 1 127
8388607 -170 2 2 0 127
8388607 -170 2 2 1 127
8388607 255 2 2 0 127
8388607 255 2 2 1 127
8388607 -256 2 2 0 127
8388607 -256 2 2 1 127
-8388607 0 2 2 0 -127
-8388607 0 2 2 1 0
-8388607 1 2 2 0 -127
-8388607 1 2 2 1 0
-8388607 -1 2 2 0 -127
-8388607 -1 2 2 1 0
-8388607 127 2 2 0 -127
-8388607 127 2 2 1 0
-8388607 -128 2 2 0 -127
-8388607 -128 2 2 1 0
-8388607 170 2 2 0 -127
-8388607 170 2 2 1 0
-8388607 -170 2 2 0 -127
-8388607 -170 2 2 1 0
-8388607 255 2 2 0 -127
-8388607 255 2 2 1 0
-8388607 -256 2 2 0 -127
-8388607 -256 2 2 1 0
0 0 2047 2 0 0
0 0 2047 2 1 0
0 1 2047 2 0 1
0 1 2047 2 1 1
0 -1 2047 2 0 -1
0 -1 2047 2 1 0
0 127 2047 2 0 127
0 127 2047 2 1 127
0 -128 2047 2 0 -127
0 -128 2047 2 1 0
0 170 2047 2 0 127
0 170 2047 2 1 127
0 -170 2047 2 0 -127
0 -170 2047 2 1 0
0 255 2047 2 0 127
0 255 2047 2 1 127
0 -256 2047 2 0 -127
0 -256 2047 2 1 0
1 0 2047 2 0 127
1 0 2047 2 1 127
1 1 2047 2 0 127
1 1 2047 2 1 127
1 -1 2047 2 0 127
1 -1 2047 2 1 127
1 127 2047 2 0 127
1 127 2047 2 1 127
1 -128 2047 2 0 127
1 -128 2047 2 1 127
1 170 2047 2 0 127
1 170 2047 2 1 127
1 -170 2047 2 0 127
1 -170 2047 2 1 127
1 255 2047 2 0 127
1 255 2047 2 1 127
1 -256 2047 2 0 127
1 -256 2047 2 1 127
-1 0 2047 2 0 -127
-1 0 2047 2 1 0
-1 1 2047 2 0 -127
-1 1 2047 2 1 0
-1 -1 2047 2 0 -127
-1 -1 2047 2 1 0
-1 127 2047 2 0 -127
-1 127 2047 2 1 0
-1 -128 2047 2 0 -127
-1 -128 2047 2 1 0
-1 170 2047 2 0 -127
-1 170 2047 2 1 0
-1 -170 2047 2 0 -127
-1 -170 2047 2 1 0
-1 255 2047 2 0 -127
-1 255 2047 2 1 0
-1 -256 2047 2 0 -127
-1 -256 2047 2 1 0
127 0 2047 2 0 127
127 0 2047 2 1 127
127 1 2047 2 0 127
127 1 2047 2 1 127
127 -1 2047 2 0 127
127 -1 2047 2 1 127
127 127 2047 2 0 127
127 127 2047 2 1 127
127 -128 2047 2 0 127
127 -128 2047 2 1 127
127 170 2047 2 0 127
127 170 2047 2 1 127
127 -170 2047 2 0 127
127 -170 2047 2 1 127
127 255 2047 2 0 127
127 255 2047 2 1 127
127 -256 2047 2 0 127
127 -256 2047 2 1 127
-127 0 2047 2 0 -127
-127 0 2047 2 1 0
-127 1 2047 2 0 -127
-127 1 2047 2 1 0
-127 -1 2047 2 0 -127
-127 -1 2047 2 1 0
-127 127 2047 2 0 -127
-127 127 2047 2 1 0
-127 -128 2047 2 0 -127
-127 -128 2047 2 1 0
-127 170 2047 2 0 -127
-127 170 2047 2 1 0
-127 -170 2047 2 0 -127
-127 -170 2047 2 1 0
-127 255 2047 2 0 -127
-127 255 2047 2 1 0
-127 -256 2047 2 0 -127
-127 -256 2047 2 1 0
128 0 2047 2 0 127
128 0 2047 2 1 127
128 1 2047 2 0 127
128 1 2047 2 1 127
128 -1 2047 2 0 127
128 -1 2047 2 1 127
128 127 2047 2 0 127
128 127 2047 2 1 127
128 -128 2047 2 0 127
128 -128 2047 2 1 127
128 170 2047 2 0 127
128 170 2047 2 1 127
128 -170 2047 2 0 127
128 -170 2047 2 1 127
128 255 2047 2 0 127
128 255 2047 2 1 127
128 -256 2047 2 0 127
128 -256 2047 2 1 127
-128 0 2047 2 0 -127
-128 0 2047 2 1 0
-128 1 2047 2 0 -127
-128 1 2047 2 1 0
-128 -1 2047 2 0 -127
-128 -1 2047 2 1 0
-128 127 2047 2 0 -127
-128 127 2047 2 1 0
-128 -128 2047 2 0 -127
-128 -128 2047 2 1 0
-128 170 2047 2 0 -127
-128 170 2047 2 1 0
-128 -170 2047 2 0 -127
-128 -170 2047 2 1 0
-128 255 2047 2 0 -127
-128 255 2047 2 1 0
-128 -256 2047 2 0 -127
-128 -256 2047 2 1 0
255 0 2047 2 0 127
255 0 2047 2 1 127
255 1 2047 2 0 127
255 1 2047 2 1 127
255 -1 2047 2 0 127
255 -1 2047 2 1 127
255 127 2047 2 0 127
255 127 2047 2 1 127
255 -128 2047 2 0 127
255 -128 2047 2 1 127
255 170 2047 2 0 127
255 170 2047 2 1 127
255 -170 2047 2 0 127
255 -170 2047 2 1 127
255 255 2047 2 0 127
255 255 2047 2 1 127
255 -256 2047 2 0 127
255 -256 2047 2 1 127
-255 0 2047 2 0 -127
-255 0 2047 2 1 0
-255 1 2047 2 0 -127
-255 1 2047 2 1 0
-255 -1 2047 2 0 -127
-255 -1 2047 2 1 0
-255 127 2047 2 0 -127
-255 127 2047 2 1 0
-255 -128 2047 2 0 -127
-255 -128 2047 2 1 0
-255 170 2047 2 0 -127
-255 170 2047 2 1 0
-255 -170 2047 2 0 -127
-255 -170 2047 2 1 0
-255 255 2047 2 0 -127
-255 255 2047 2 1 0
-255 -256 2047 2 0 -127
-255 -256 2047 2 1 0
1048576 0 2047 2 0 127
1048576 0 2047 2 1 127
1048576 1 2047 2 0 127
1048576 1 2047 2 1 127
1048576 -1 2047 2 0 127
1048576 -1 2047 2 1 127
1048576 127 2047 2 0 127
1048576 127 2047 2 1 127
1048576 -128 2047 2 0 127
1048576 -128 2047 2 1 127
1048576 170 2047 2 0 127
1048576 170 2047 2 1 127
1048576 -170 2047 2 0 127
1048576 -170 2047 2 1 127
1048576 255 2047 2 0 127
1048576 255 2047 2 1 127
1048576 -256 2047 2 0 127
1048576 -256 2047 2 1 127
-1048576 0 2047 2 0 -127
-1048576 0 2047 2 1 0
-1048576 1 2047 2 0 -127
-1048576 1 2047 2 1 0
-1048576 -1 2047 2 0 -127
-1048576 -1 2047 2 1 0
-1048576 127 2047 2 0 -127
-1048576 127 2047 2 1 0
-1048576 -128 2047 2 0 -127
-1048576 -128 2047 2 1 0
-1048576 170 2047 2 0 -127
-1048576 170 2047 2 1 0
-1048576 -170 2047 2 0 -127
-1048576 -170 2047 2 1 0
-1048576 255 2047 2 0 -127
-1048576 255 2047 2 1 0
-1048576 -256 2047 2 0 -127
-1048576 -256 2047 2 1 0
8388607 0 2047 2 0 127
8388607 0 2047 2 1 127
8388607 1 2047 2 0 127
8388607 1 2047 2 1 127
8388607 -1 2047 2 0 127
8388607 -1 2047 2 1 127
8388607 127 2047 2 0 127
8388607 127 2047 2 1 127
8388607 -128 2047 2 0 127
8388607 -128 2047 2 1 127
8388607 170 2047 2 0 127
8388607 170 2047 2 1 127
8388607 -170 2047 2 0 127
8388607 -170 2047 2 1 127
8388607 255 2047 2 0 127
8388607 255 2047 2 1 127
8388607 -256 2047 2 0 127
8388607 -256 2047 2 1 127
-8388607 0 2047 2 0 -127
-8388607 0 2047 2 1 0
-8388607 1 2047 2 0 -127
-8388607 1 2047 2 1 0
-8388607 -1 2047 2 0 -127
-8388607 -1 2047 2 1 0
-8388607 127 2047 2 0 -127
-8388607 127 2047 2 1 0
-8388607 -128 2047 2 0 -127
-8388607 -128 2047 2 1 0
-8388607 170 2047 2 0 -127
-8388607 170 2047 2 1 0
-8388607 -170 2047 2 0 -127
-8388607 -170 2047 2 1 0
-8388607 255 2047 2 0 -127
-8388607 255 2047 2 1 0
-8388607 -256 2047 2 0 -127
-8388607 -256 2047 2 1 0
0 0 0 31 0 0
0 0 0 31 1 0
0 1 0 31 0 1
0 1 0 31 1 1
0 -1 0 31 0 -1
0 -1 0 31 1 0
0 127 0 31 0 127
0 127 0 31 1 127
0 -128 0 31 0 -127
0 -128 0 31 1 0
0 170 0 31 0 127
0 170 0 31 1 127
0 -170 0 31 0 -127
0 -170 0 31 1 0
0 255 0 31 0 127
0 255 0 31 1 127
0 -256 0 31 0 -127
0 -256 0 31 1 0
1 0 0 31 0 0
1 0 0 31 1 0
1 1 0 31 0 1
1 1 0 31 1 1
1 -1 0 31 0 -1
1 -1 0 31 1 0
1 127 0 31 0 127
1 127 0 31 1 127
1 -128 0 31 0 -127
1 -128 0 31 1 0
1 170 0 31 0 127
1 170 0 31 1 127
1 -170 0 31 0 -127
1 -170 0 31 1 0
1 255 0 31 0 127
1 255 0 31 1 127
1 -256 0 31 0 -127
1 -256 0 31 1 0
-1 0 0 31 0 0
-1 0 0 31 1 0
-1 1 0 31 0 1
-1 1 0 31 1 1
-1 -1 0 31 0 -1
-1 -1 0 31 1 0
-1 127 0 31 0 127
-1 127 0 31 1 127
-1 -128 0 31 0 -127
-1 -128 0 31 1 0
-1 170 0 31 0 127
-1 170 0 31 1 127
-1 -170 0 31 0 -127
-1 -170 0 31 1 0
-1 255 0 31 0 127
-1 255 0 31 1 127
-1 -256 0 31 0 -127
-1 -256 0 31 1 0
127 0 0 31 0 0
127 0 0 31 1 0
127 1 0 31 0 1
127 1 0 31 1 1
127 -1 0 31 0 -1
127 -1 0 31 1 0
127 127 0 31 0 127
127 127 0 31 1 127
127 -128 0 31 0 -127
127 -128 0 31 1 0
127 170 0 31 0 127
127 170 0 31 1 127
127 -170 0 31 0 -127
127 -170 0 31 1 0
127 255 0 31 0 127
127 255 0 31 1 127
127 -256 0 31 0 -127
127 -256 0 31 1 0
-127 0 0 31 0 0
-127 0 0 31 1 0
-127 1 0 31 0 1
-127 1 0 31 1 1
-127 -1 0 31 0 -1
-127 -1 0 31 1 0
-127 127 0 31 0 127
-127 127 0 31 1 127
-127 -128 0 31 0 -127
-127 -128 0 31 1 0
-127 170 0 31 0 127
-127 170 0 31 1 127
-127 -170 0 31 0 -127
-127 -170 0 31 1 0
-127 255 0 31 0 127
-127 255 0 31 1 127
-127 -256 0 31 0 -127
-127 -256 0 31 1 0
128 0 0 31 0 0
128 0 0 31 1 0
128 1 0 31 0 1
128 1 0 31 1 1
128 -1 0 31 0 -1
128 -1 0 31 1 0
128 127 0 31 0 127
128 127 0 31 1 127
128 -128 0 31 0 -127
128 -128 0 31 1 0
128 170 0 31 0 127
128 170 0 31 1 127
128 -170 0 31 0 -127
128 -170 0 31 1 0
128 255 0 31 0 127
128 255 0 31 1 127
128 -256 0 31 0 -127
128 -256 0 31 1 0
-128 0 0 31 0 0
-128 0 0 31 1 0
-128 1 0 31 0 1
-128 1 0 31 1 1
-128 -1 0 31 0 -1
-128 -1 0 31 1 0
-128 127 0 31 0 127
-128 127 0 31 1 127
-128 -128 0 31 0 -127
-128 -128 0 31 1 0
-128 170 0 31 0 127
-128 170 0 31 1 127
-128 -170 0 31 0 -127
-128 -170 0 31 1 0
-128 255 0 31 0 127
-128 255 0 31 1 127
-128 -256 0 31 0 -127
-128 -256 0 31 1 0
255 0 0 31 0 0
255 0 0 31 1 0
255 1 0 31 0 1
255 1 0 31 1 1
255 -1 0 31 0 -1
255 -1 0 31 1 0
255 127 0 31 0 127
255 127 0 31 1 127
255 -128 0 31 0 -127
255 -128 0 31 1 0
255 170 0 31 0 127
255 170 0 31 1 127
255 -170 0 31 0 -127
255 -170 0 31 1 0
255 255 0 31 0 127
255 255 0 31 1 127
255 -256 0 31 0 -127
255 -256 0 31 1 0
-255 0 0 31 0 0
-255 0 0 31 1 0
-255 1 0 31 0 1
-255 1 0 31 1 1
-255 -1 0 31 0 -1
-255 -1 0 31 1 0
-255 127 0 31 0 127
-255 127 0 31 1 127
-255 -128 0 31 0 -127
-255 -128 0 31 1 0
-255 170 0 31 0 127
-255 170 0 31 1 127
-255 -170 0 31 0 -127
-255 -170 0 31 1 0
-255 255 0 31 0 127
-255 255 0 31 1 127
-255 -256 0 31 0 -127
-255 -256 0 31 1 0
1048576 0 0 31 0 0
1048576 0 0 31 1 0
1048576 1 0 31 0 1
1048576 1 0 31 1 1
1048576 -1 0 31 0 -1
1048576 -1 0 31 1 0
1048576 127 0 31 0 127
1048576 127 0 31 1 127
1048576 -128 0 31 0 -127
1048576 -128 0 31 1 0
1048576 170 0 31 0 127
1048576 170 0 31 1 127
1048576 -170 0 31 0 -127
1048576 -170 0 31 1 0
1048576 255 0 31 0 127
1048576 255 0 31 1 127
1048576 -256 0 31 0 -127
1048576 -256 0 31 1 0
-1048576 0 0 31 0 0
-1048576 0 0 31 1 0
-1048576 1 0 31 0 1
-1048576 1 0 31 1 1
-1048576 -1 0 31 0 -1
-1048576 -1 0 31 1 0
-1048576 127 0 31 0 127
-1048576 127 0 31 1 127
-1048576 -128 0 31 0 -127
-1048576 -128 0 31 1 0
-1048576 170 0 31 0 127
-1048576 170 0 31 1 127
-1048576 -170 0 31 0 -127
-1048576 -170 0 31 1 0
-1048576 255 0 31 0 127
-1048576 255 0 31 1 127
-1048576 -256 0 31 0 -127
-1048576 -256 0 31 1 0
8388607 0 0 31 0 0
8388607 0 0 31 1 0
8388607 1 0 31 0 1
8388607 1 0 31 1 1
8388607 -1 0 31 0 -1
8388607 -1 0 31 1 0
8388607 127 0 31 0 127
8388607 127 0 31 1 127
8388607 -128 0 31 0 -127
8388607 -128 0 31 1 0
8388607 170 0 31 0 127
8388607 170 0 31 1 127
8388607 -170 0 31 0 -127
8388607 -170 0 31 1 0
8388607 255 0 31 0 127
8388607 255 0 31 1 127
8388607 -256 0 31 0 -127
8388607 -256 0 31 1 0
-8388607 0 0 31 0 0
-8388607 0 0 31 1 0
-8388607 1 0 31 0 1
-8388607 1 0 31 1 1
-8388607 -1 0 31 0 -1
-8388607 -1 0 31 1 0
-8388607 127 0 31 0 127
-8388607 127 0 31 1 127
-8388607 -128 0 31 0 -127
-8388607 -128 0 31 1 0
-8388607 170 0 31 0 127
-8388607 170 0 31 1 127
-8388607 -170 0 31 0 -127
-8388607 -170 0 31 1 0
-8388607 255 0 31 0 127
-8388607 255 0 31 1 127
-8388607 -256 0 31 0 -127
-8388607 -256 0 31 1 0
0 0 1 31 0 0
0 0 1 31 1 0
0 1 1 31 0 1
0 1 1 31 1 1
0 -1 1 31 0 -1
0 -1 1 31 1 0
0 127 1 31 0 127
0 127 1 31 1 127
0 -128 1 31 0 -127
0 -128 1 31 1 0
0 170 1 31 0 127
0 170 1 31 1 127
0 -170 1 31 0 -127
0 -170 1 31 1 0
0 255 1 31 0 127
0 255 1 31 1 127
0 -256 1 31 0 -127
0 -256 1 31 1 0
1 0 1 31 0 0
1 0 1 31 1 0
1 1 1 31 0 1
1 1 1 31 1 1
1 -1 1 31 0 -1
1 -1 1 31 1 0
1 127 1 31 0 127
1 127 1 31 1 127
1 -128 1 31 0 -127
1 -128 1 31 1 0
1 170 1 31 0 127
1 170 1 31 1 127
1 -170 1 31 0 -127
1 -170 1 31 1 0
1 255 1 31 0 127
1 255 1 31 1 127
1 -256 1 31 0 -127
1 -256 1 31 1 0
-1 0 1 31 0 0
-1 0 1 31 1 0
-1 1 1 31 0 1
-1 1 1 31 1 1
-1 -1 1 31 0 -1
-1 -1 1 31 1 0
-1 127 1 31 0 127
-1 127 1 31 1 127
-1 -128 1 31 0 -127
-1 -128 1 31 1 0
-1 170 1 31 0 127
-1 170 1 31 1 127
-1 -170 1 31 0 -127
-1 -170 1 31 1 0
-1 255 1 31 0 127
-1 255 1 31 1 127
-1 -256 1 31 0 -127
-1 -256 1 31 1 0
127 0 1 31 0 0
127 0 1 31 1 0
127 1 1 31 0 1
127 1 1 31 1 1
127 -1 1 31 0 -1
127 -1 1 31 1 0
127 127 1 31 0 127
127 127 1 31 1 127
127 -128 1 31 0 -127
127 -128 1 31 1 0
127 170 1 31 0 127
127 170 1 31 1 127
127 -170 1 31 0 -127
127 -170 1 31 1 0
127 255 1 31 0 127
127 255 1 31 1 127
127 -256 1 31 0 -127
127 -256 1 31 1 0
-127 0 1 31 0 0
-127 0 1 31 1 0
-127 1 1 31 0 1
-127 1 1 31 1 1
-127 -1 1 31 0 -1
-127 -1 1 31 1 0
-127 127 1 31 0 127
-127 127 1 31 1 127
-127 -128 1 31 0 -127
-127 -128 1 31 1 0
-127 170 1 31 0 127
-127 170 1 31 1 127
-127 -170 1 31 0 -127
-127 -170 1 31 1 0
-127 255 1 31 0 127
-127 255 1 31 1 127
-127 -256 1 31 0 -127
-127 -256 1 31 1 0
128 0 1 31 0 0
128 0 1 31 1 0
128 1 1 31 0 1
128 1 1 31 1 1
128 -1 1 31 0 -1
128 -1 1 31 1 0
128 127 1 31 0 127
128 127 1 31 1 127
128 -128 1 31 0 -127
128 -128 1 31 1 0
128 170 1 31 0 127
128 170 1 31 1 127
128 -170 1 31 0 -127
128 -170 1 31 1 0
128 255 1 31 0 127
128 255 1 31 1 127
128 -256 1 31 0 -127
128 -256 1 31 1 0
-128 0 1 31 0 0
-128 0 1 31 1 0
-128 1 1 31 0 1
-128 1 1 31 1 1
-128 -1 1 31 0 -1
-128 -1 1 31 1 0
-128 127 1 31 0 127
-128 127 1 31 1 127
-128 -128 1 31 0 -127
-128 -128 1 31 1 0
-128 170 1 31 0 127
-128 170 1 31 1 127
-128 -170 1 31 0 -127
-128 -170 1 31 1 0
-128 255 1 31 0 127
-128 255 1 31 1 127
-128 -256 1 31 0 -127
-128 -256 1 31 1 0
255 0 1 31 0 0
255 0 1 31 1 0
255 1 1 31 0 1
255 1 1 31 1 1
255 -1 1 31 0 -1
255 -1 1 31 1 0
255 127 1 31 0 127
255 127 1 31 1 127
255 -128 1 31 0 -127
255 -128 1 31 1 0
255 170 1 31 0 127
255 170 1 31 1 127
255 -170 1 31 0 -127
255 -170 1 31 1 0
255 255 1 31 0 127
255 255 1 31 1 127
255 -256 1 31 0 -127
255 -256 1 31 1 0
-255 0 1 31 0 0
-255 0 1 31 1 0
-255 1 1 31 0 1
-255 1 1 31 1 1
-255 -1 1 31 0 -1
-255 -1 1 31 1 0
-255 127 1 31 0 127
-255 127 1 31 1 127
-255 -128 1 31 0 -127
-255 -128 1 31 1 0
-255 170 1 31 0 127
-255 170 1 31 1 127
-255 -170 1 31 0 -127
-255 -170 1 31 1 0
-255 255 1 31 0 127
-255 255 1 31 1 127
-255 -256 1 31 0 -127
-255 -256 1 31 1 0
1048576 0 1 31 0 0
1048576 0 1 31 1 0
1048576 1 1 31 0 1
1048576 1 1 31 1 1
1048576 -1 1 31 0 -1
1048576 -1 1 31 1 0
1048576 127 1 31 0 127
1048576 127 1 31 1 127
1048576 -128 1 31 0 -127
1048576 -128 1 31 1 0
1048576 170 1 31 0 127
1048576 170 1 31 1 127
1048576 -170 1 31 0 -127
1048576 -170 1 31 1 0
1048576 255 1 31 0 127
1048576 255 1 31 1 127
1048576 -256 1 31 0 -127
1048576 -256 1 31 1 0
-1048576 0 1 31 0 0
-1048576 0 1 31 1 0
-1048576 1 1 31 0 1
-1048576 1 1 31 1 1
-1048576 -1 1 31 0 -1
-1048576 -1 1 31 1 0
-1048576 127 1 31 0 127
-1048576 127 1 31 1 127
-1048576 -128 1 31 0 -127
-1048576 -128 1 31 1 0
-1048576 170 1 31 0 127
-1048576 170 1 31 1 127
-1048576 -170 1 31 0 -127
-1048576 -170 1 31 1 0
-1048576 255 1 31 0 127
-1048576 255 1 31 1 127
-1048576 -256 1 31 0 -127
-1048576 -256 1 31 1 0
8388607 0 1 31 0 0
8388607 0 1 31 1 0
8388607 1 1 31 0 1
8388607 1 1 31 1 1
8388607 -1 1 31 0 -1
8388607 -1 1 31 1 0
8388607 127 1 31 0 127
8388607 127 1 31 1 127
8388607 -128 1 31 0 -127
8388607 -128 1 31 1 0
8388607 170 1 31 0 127
8388607 170 1 31 1 127
8388607 -170 1 31 0 -127
8388607 -170 1 31 1 0
8388607 255 1 31 0 127
8388607 255 1 31 1 127
8388607 -256 1 31 0 -127
8388607 -256 1 31 1 0
-8388607 0 1 31 0 0
-8388607 0 1 31 1 0
-8388607 1 1 31 0 1
-8388607 1 1 31 1 1
-8388607 -1 1 31 0 -1
-8388607 -1 1 31 1 0
-8388607 127 1 31 0 127
-8388607 127 1 31 1 127
-8388607 -128 1 31 0 -127
-8388607 -128 1 31 1 0
-8388607 170 1 31 0 127
-8388607 170 1 31 1 127
-8388607 -170 1 31 0 -127
-8388607 -170 1 31 1 0
-8388607 255 1 31 0 127
-8388607 255 1 31 1 127
-8388607 -256 1 31 0 -127
-8388607 -256 1 31 1 0
0 0 2 31 0 0
0 0 2 31 1 0
0 1 2 31 0 1
0 1 2 31 1 1
0 -1 2 31 0 -1
0 -1 2 31 1 0
0 127 2 31 0 127
0 127 2 31 1 127
0 -128 2 31 0 -127
0 -128 2 31 1 0
0 170 2 31 0 127
0 170 2 31 1 127
0 -170 2 31 0 -127
0 -170 2 31 1 0
0 255 2 31 0 127
0 255 2 31 1 127
0 -256 2 31 0 -127
0 -256 2 31 1 0
1 0 2 31 0 0
1 0 2 31 1 0
1 1 2 31 0 1
1 1 2 31 1 1
1 -1 2 31 0 -1
1 -1 2 31 1 0
1 127 2 31 0 127
1 127 2 31 1 127
1 -128 2 31 0 -127
1 -128 2 31 1 0
1 170 2 31 0 127
1 170 2 31 1 127
1 -170 2 31 0 -127
1 -170 2 31 1 0
1 255 2 31 0 127
1 255 2 31 1 127
1 -256 2 31 0 -127
1 -256 2 31 1 0
-1 0 2 31 0 0
-1 0 2 31 1 0
-1 1 2 31 0 1
-1 1 2 31 1 1
-1 -1 2 31 0 -1
-1 -1 2 31 1 0
-1 127 2 31 0 127
-1 127 2 31 1 127
-1 -128 2 31 0 -127
-1 -128 2 31 1 0
-1 170 2 31 0 127
-1 170 2 31 1 127
-1 -170 2 31 0 -127
-1 -170 2 31 1 0
-1 255 2 31 0 127
-1 255 2 31 1 127
-1 -256 2 31 0 -127
-1 -256 2 31 1 0
127 0 2 31 0 0
127 0 2 31 1 0
127 1 2 31 0 1
127 1 2 31 1 1
127 -1 2 31 0 -1
127 -1 2 31 1 0
127 127 2 31 0 127
127 127 2 31 1 127
127 -128 2 31 0 -127
127 -128 2 31 1 0
127 170 2 31 0 127
127 170 2 31 1 127
127 -170 2 31 0 -127
127 -170 2 31 1 0
127 255 2 31 0 127
127 255 2 31 1 127
127 -256 2 31 0 -127
127 -256 2 31 1 0
-127 0 2 31 0 0
-127 0 2 31 1 0
-127 1 2 31 0 1
-127 1 2 31 1 1
-127 -1 2 31 0 -1
-127 -1 2 31 1 0
-127 127 2 31 0 127
-127 127 2 31 1 127
-127 -128 2 31 0 -127
-127 -128 2 31 1 0
-127 170 2 31 0 127
-127 170 2 31 1 127
-127 -170 2 31 0 -127
-127 -170 2 31 1 0
-127 255 2 31 0 127
-127 255 2 31 1 127
-127 -256 2 31 0 -127
-127 -256 2 31 1 0
128 0 2 31 0 0
128 0 2 31 1 0
128 1 2 31 0 1
128 1 2 31 1 1
128 -1 2 31 0 -1
128 -1 2 31 1 0
128 127 2 31 0 127
128 127 2 31 1 127
128 -128 2 31 0 -127
128 -128 2 31 1 0
128 170 2 31 0 127
128 170 2 31 1 127
128 -170 2 31 0 -127
128 -170 2 31 1 0
128 255 2 31 0 127
128 255 2 31 1 127
128 -256 2 31 0 -127
128 -256 2 31 1 0
-128 0 2 31 0 0
-128 0 2 31 1 0
-128 1 2 31 0 1
-128 1 2 31 1 1
-128 -1 2 31 0 -1
-128 -1 2 31 1 0
-128 127 2 31 0 127
-128 127 2 31 1 127
-128 -128 2 31 0 -127
-128 -128 2 31 1 0
-128 170 2 31 0 127
-128 170 2 31 1 127
-128 -170 2 31 0 -127
-128 -170 2 31 1 0
-128 255 2 31 0 127
-128 255 2 31 1 127
-128 -256 2 31 0 -127
-128 -256 2 31 1 0
255 0 2 31 0 0
255 0 2 31 1 0
255 1 2 31 0 1
255 1 2 31 1 1
255 -1 2 31 0 -1
255 -1 2 31 1 0
255 127 2 31 0 127
255 127 2 31 1 127
255 -128 2 31 0 -127
255 -128 2 31 1 0
255 170 2 31 0 127
255 170 2 31 1 127
255 -170 2 31 0 -127
255 -170 2 31 1 0
255 255 2 31 0 127
255 255 2 31 1 127
255 -256 2 31 0 -127
255 -256 2 31 1 0
-255 0 2 31 0 0
-255 0 2 31 1 0
-255 1 2 31 0 1
-255 1 2 31 1 1
-255 -1 2 31 0 -1
-255 -1 2 31 1 0
-255 127 2 31 0 127
-255 127 2 31 1 127
-255 -128 2 31 0 -127
-255 -128 2 31 1 0
-255 170 2 31 0 127
-255 170 2 31 1 127
-255 -170 2 31 0 -127
-255 -170 2 31 1 0
-255 255 2 31 0 127
-255 255 2 31 1 127
-255 -256 2 31 0 -127
-255 -256 2 31 1 0
1048576 0 2 31 0 0
1048576 0 2 31 1 0
1048576 1 2 31 0 1
1048576 1 2 31 1 1
1048576 -1 2 31 0 -1
1048576 -1 2 31 1 0
1048576 127 2 31 0 127
1048576 127 2 31 1 127
1048576 -128 2 31 0 -127
1048576 -128 2 31 1 0
1048576 170 2 31 0 127
1048576 170 2 31 1 127
1048576 -170 2 31 0 -127
1048576 -170 2 31 1 0
1048576 255 2 31 0 127
1048576 255 2 31 1 127
1048576 -256 2 31 0 -127
1048576 -256 2 31 1 0
-1048576 0 2 31 0 0
-1048576 0 2 31 1 0
-1048576 1 2 31 0 1
-1048576 1 2 31 1 1
-1048576 -1 2 31 0 -1
-1048576 -1 2 31 1 0
-1048576 127 2 31 0 127
-1048576 127 2 31 1 127
-1048576 -128 2 31 0 -127
-1048576 -128 2 31 1 0
-1048576 170 2 31 0 127
-1048576 170 2 31 1 127
-1048576 -170 2 31 0 -127
-1048576 -170 2 31 1 0
-1048576 255 2 31 0 127
-1048576 255 2 31 1 127
-1048576 -256 2 31 0 -127
-1048576 -256 2 31 1 0
8388607 0 2 31 0 0
8388607 0 2 31 1 0
8388607 1 2 31 0 1
8388607 1 2 31 1 1
8388607 -1 2 31 0 -1
8388607 -1 2 31 1 0
8388607 127 2 31 0 127
8388607 127 2 31 1 127
8388607 -128 2 31 0 -127
8388607 -128 2 31 1 0
8388607 170 2 31 0 127
8388607 170 2 31 1 127
8388607 -170 2 31 0 -127
8388607 -170 2 31 1 0
8388607 255 2 31 0 127
8388607 255 2 31 1 127
8388607 -256 2 31 0 -127
8388607 -256 2 31 1 0
-8388607 0 2 31 0 0
-8388607 0 2 31 1 0
-8388607 1 2 31 0 1
-8388607 1 2 31 1 1
-8388607 -1 2 31 0 -1
-8388607 -1 2 31 1 0
-8388607 127 2 31 0 127
-8388607 127 2 31 1 127
-8388607 -128 2 31 0 -127
-8388607 -128 2 31 1 0
-8388607 170 2 31 0 127
-8388607 170 2 31 1 127
-8388607 -170 2 31 0 -127
-8388607 -170 2 31 1 0
-8388607 255 2 31 0 127
-8388607 255 2 31 1 127
-8388607 -256 2 31 0 -127
-8388607 -256 2 31 1 0
0 0 2047 31 0 0
0 0 2047 31 1 0
0 1 2047 31 0 1
0 1 2047 31 1 1
0 -1 2047 31 0 -1
0 -1 2047 31 1 0
0 127 2047 31 0 127
0 127 2047 31 1 127
0 -128 2047 31 0 -127
0 -128 2047 31 1 0
0 170 2047 31 0 127
0 170 2047 31 1 127
0 -170 2047 31 0 -127
0 -170 2047 31 1 0
0 255 2047 31 0 127
0 255 2047 31 1 127
0 -256 2047 31 0 -127
0 -256 2047 31 1 0
1 0 2047 31 0 0
1 0 2047 31 1 0
1 1 2047 31 0 1
1 1 2047 31 1 1
1 -1 2047 31 0 -1
1 -1 2047 31 1 0
1 127 2047 31 0 127
1 127 2047 31 1 127
1 -128 2047 31 0 -127
1 -128 2047 31 1 0
1 170 2047 31 0 127
1 170 2047 31 1 127
1 -170 2047 31 0 -127
1 -170 2047 31 1 0
1 255 2047 31 0 127
1 255 2047 31 1 127
1 -256 2047 31 0 -127
1 -256 2047 31 1 0
-1 0 2047 31 0 0
-1 0 2047 31 1 0
-1 1 2047 31 0 1
-1 1 2047 31 1 1
-1 -1 2047 31 0 -1
-1 -1 2047 31 1 0
-1 127 2047 31 0 127
-1 127 2047 31 1 127
-1 -128 2047 31 0 -127
-1 -128 2047 31 1 0
-1 170 2047 31 0 127
-1 170 2047 31 1 127
-1 -170 2047 31 0 -127
-1 -170 2047 31 1 0
-1 255 2047 31 0 127
-1 255 2047 31 1 127
-1 -256 2047 31 0 -127
-1 -256 2047 31 1 0
127 0 2047 31 0 0
127 0 2047 31 1 0
127 1 2047 31 0 1
127 1 2047 31 1 1
127 -1 2047 31 0 -1
127 -1 2047 31 1 0
127 127 2047 31 0 127
127 127 2047 31 1 127
127 -128 2047 31 0 -127
127 -128 2047 31 1 0
127 170 2047 31 0 127
127 170 2047 31 1 127
127 -170 2047 31 0 -127
127 -170 2047 31 1 0
127 255 2047 31 0 127
127 255 2047 31 1 127
127 -256 2047 31 0 -127
127 -256 2047 31 1 0
-127 0 2047 31 0 0
-127 0 2047 31 1 0
-127 1 2047 31 0 1
-127 1 2047 31 1 1
-127 -1 2047 31 0 -1
-127 -1 2047 31 1 0
-127 127 2047 31 0 127
-127 127 2047 31 1 127
-127 -128 2047 31 0 -127
-127 -128 2047 31 1 0
-127 170 2047 31 0 127
-127 170 2047 31 1 127
-127 -170 2047 31 0 -127
-127 -170 2047 31 1 0
-127 255 2047 31 0 127
-127 255 2047 31 1 127
-127 -256 2047 31 0 -127
-127 -256 2047 31 1 0
128 0 2047 31 0 0
128 0 2047 31 1 0
128 1 2047 31 0 1
128 1 2047 31 1 1
128 -1 2047 31 0 -1
128 -1 2047 31 1 0
128 127 2047 31 0 127
128 127 2047 31 1 127
128 -128 2047 31 0 -127
128 -128 2047 31 1 0
128 170 2047 31 0 127
128 170 2047 31 1 127
128 -170 2047 31 0 -127
128 -170 2047 31 1 0
128 255 2047 31 0 127
128 255 2047 31 1 127
128 -256 2047 31 0 -127
128 -256 2047 31 1 0
-128 0 2047 31 0 0
-128 0 2047 31 1 0
-128 1 2047 31 0 1
-128 1 2047 31 1 1
-128 -1 2047 31 0 -1
-128 -1 2047 31 1 0
-128 127 2047 31 0 127
-128 127 2047 31 1 127
-128 -128 2047 31 0 -127
-128 -128 2047 31 1 0
-128 170 2047 31 0 127
-128 170 2047 31 1 127
-128 -170 2047 31 0 -127
-128 -170 2047 31 1 0
-128 255 2047 31 0 127
-128 255 2047 31 1 127
-128 -256 2047 31 0 -127
-128 -256 2047 31 1 0
255 0 2047 31 0 0
255 0 2047 31 1 0
255 1 2047 31 0 1
255 1 2047 31 1 1
255 -1 2047 31 0 -1
255 -1 2047 31 1 0
255 127 2047 31 0 127
255 127 2047 31 1 127
255 -128 2047 31 0 -127
255 -128 2047 31 1 0
255 170 2047 31 0 127
255 170 2047 31 1 127
255 -170 2047 31 0 -127
255 -170 2047 31 1 0
255 255 2047 31 0 127
255 255 2047 31 1 127
255 -256 2047 31 0 -127
255 -256 2047 31 1 0
-255 0 2047 31 0 0
-255 0 2047 31 1 0
-255 1 2047 31 0 1
-255 1 2047 31 1 1
-255 -1 2047 31 0 -1
-255 -1 2047 31 1 0
-255 127 2047 31 0 127
-255 127 2047 31 1 127
-255 -128 2047 31 0 -127
-255 -128 2047 31 1 0
-255 170 2047 31 0 127
-255 170 2047 31 1 127
-255 -170 2047 31 0 -127
-255 -170 2047 31 1 0
-255 255 2047 31 0 127
-255 255 2047 31 1 127
-255 -256 2047 31 0 -127
-255 -256 2047 31 1 0
1048576 0 2047 31 0 1
1048576 0 2047 31 1 1
1048576 1 2047 31 0 2
1048576 1 2047 31 1 2
1048576 -1 2047 31 0 0
1048576 -1 2047 31 1 0
1048576 127 2047 31 0 127
1048576 127 2047 31 1 127
1048576 -128 2047 31 0 -127
1048576 -128 2047 31 1 0
1048576 170 2047 31 0 127
1048576 170 2047 31 1 127
1048576 -170 2047 31 0 -127
1048576 -170 2047 31 1 0
1048576 255 2047 31 0 127
1048576 255 2047 31 1 127
1048576 -256 2047 31 0 -127
1048576 -256 2047 31 1 0
-1048576 0 2047 31 0 -1
-1048576 0 2047 31 1 0
-1048576 1 2047 31 0 0
-1048576 1 2047 31 1 0
-1048576 -1 2047 31 0 -2
-1048576 -1 2047 31 1 0
-1048576 127 2047 31 0 126
-1048576 127 2047 31 1 126
-1048576 -128 2047 31 0 -127
-1048576 -128 2047 31 1 0
-1048576 170 2047 31 0 127
-1048576 170 2047 31 1 127
-1048576 -170 2047 31 0 -127
-1048576 -170 2047 31 1 0
-1048576 255 2047 31 0 127
-1048576 255 2047 31 1 127
-1048576 -256 2047 31 0 -127
-1048576 -256 2047 31 1 0
8388607 0 2047 31 0 8
8388607 0 2047 31 1 8
8388607 1 2047 31 0 9
8388607 1 2047 31 1 9
8388607 -1 2047 31 0 7
8388607 -1 2047 31 1 7
8388607 127 2047 31 0 127
8388607 127 2047 31 1 127
8388607 -128 2047 31 0 -120
8388607 -128 2047 31 1 0
8388607 170 2047 31 0 127
8388607 170 2047 31 1 127
8388607 -170 2047 31 0 -127
8388607 -170 2047 31 1 0
8388607 255 2047 31 0 127
8388607 255 2047 31 1 127
8388607 -256 2047 31 0 -127
8388607 -256 2047 31 1 0
-8388607 0 2047 31 0 -8
-8388607 0 2047 31 1 0
-8388607 1 2047 31 0 -7
-8388607 1 2047 31 1 0
-8388607 -1 2047 31 0 -9
-8388607 -1 2047 31 1 0
-8388607 127 2047 31 0 119
-8388607 127 2047 31 1 119
-8388607 -128 2047 31 0 -127
-8388607 -128 2047 31 1 0
-8388607 170 2047 31 0 127
-8388607 170 2047 31 1 127
-8388607 -170 2047 31 0 -127
-8388607 -170 2047 31 1 0
-8388607 255 2047 31 0 127
-8388607 255 2047 31 1 127
-8388607 -256 2047 31 0 -127
-8388607 -256 2047 31 1 0
2 0 1 1 0 1
2 0 1 1 1 1
2 127 1 1 0 127
2 -128 1 1 1 0
-2 0 1 1 0 -1
-2 0 1 1 1 0
-2 127 1 1 0 126
-2 -128 1 1 1 0
0 0 3 1 0 0
0 0 3 1 1 0
0 127 3 1 0 127
0 -128 3 1 1 0
2 0 1 2 0 1
2 0 1 2 1 1
2 127 1 2 0 127
2 -128 1 2 1 0
-2 0 1 2 0 0
-2 0 1 2 1 0
-2 127 1 2 0 127
-2 -128 1 2 1 0
3 0 1 2 0 1
3 0 1 2 1 1
3 127 1 2 0 127
3 -128 1 2 1 0
-3 0 1 2 0 -1
-3 0 1 2 1 0
-3 127 1 2 0 126
-3 -128 1 2 1 0
0 0 3 2 0 0
0 0 3 2 1 0
0 127 3 2 0 127
0 -128 3 2 1 0
1 0 3 2 0 1
1 0 3 2 1 1
1 127 3 2 0 127
1 -128 3 2 1 0
-1 0 3 2 0 -1
-1 0 3 2 1 0
-1 127 3 2 0 126
-1 -128 3 2 1 0
3 0 1 3 0 0
3 0 1 3 1 0
3 127 1 3 0 127
3 -128 1 3 1 0
-3 0 1 3 0 0
-3 0 1 3 1 0
-3 127 1 3 0 127
-3 -128 1 3 1 0
4 0 1 3 0 1
4 0 1 3 1 1
4 127 1 3 0 127
4 -128 1 3 1 0
-4 0 1 3 0 0
-4 0 1 3 1 0
-4 127 1 3 0 127
-4 -128 1 3 1 0
5 0 1 3 0 1
5 0 1 3 1 1
5 127 1 3 0 127
5 -128 1 3 1 0
-5 0 1 3 0 -1
-5 0 1 3 1 0
-5 127 1 3 0 126
-5 -128 1 3 1 0
1 0 3 3 0 0
1 0 3 3 1 0
1 127 3 3 0 127
1 -128 3 3 1 0
-1 0 3 3 0 0
-1 0 3 3 1 0
-1 127 3 3 0 127
-1 -128 3 3 1 0
0 0 2047 3 0 0
0 0 2047 3 1 0
0 127 2047 3 0 127
0 -128 2047 3 1 0
7 0 1 4 0 0
7 0 1 4 1 0
7 127 1 4 0 127
7 -128 1 4 1 0
-7 0 1 4 0 0
-7 0 1 4 1 0
-7 127 1 4 0 127
-7 -128 1 4 1 0
8 0 1 4 0 1
8 0 1 4 1 1
8 127 1 4 0 127
8 -128 1 4 1 0
-8 0 1 4 0 0
-8 0 1 4 1 0
-8 127 1 4 0 127
-8 -128 1 4 1 0
9 0 1 4 0 1
9 0 1 4 1 1
9 127 1 4 0 127
9 -128 1 4 1 0
-9 0 1 4 0 -1
-9 0 1 4 1 0
-9 127 1 4 0 126
-9 -128 1 4 1 0
2 0 3 4 0 0
2 0 3 4 1 0
2 127 3 4 0 127
2 -128 3 4 1 0
-2 0 3 4 0 0
-2 0 3 4 1 0
-2 127 3 4 0 127
-2 -128 3 4 1 0
3 0 3 4 0 1
3 0 3 4 1 1
3 127 3 4 0 127
3 -128 3 4 1 0
-3 0 3 4 0 -1
-3 0 3 4 1 0
-3 127 3 4 0 126
-3 -128 3 4 1 0
0 0 2047 4 0 0
0 0 2047 4 1 0
0 127 2047 4 0 127
0 -128 2047 4 1 0
15 0 1 5 0 0
15 0 1 5 1 0
15 127 1 5 0 127
15 -128 1 5 1 0
-15 0 1 5 0 0
-15 0 1 5 1 0
-15 127 1 5 0 127
-15 -128 1 5 1 0
16 0 1 5 0 1
16 0 1 5 1 1
16 127 1 5 0 127
16 -128 1 5 1 0
-16 0 1 5 0 0
-16 0 1 5 1 0
-16 127 1 5 0 127
-16 -128 1 5 1 0
17 0 1 5 0 1
17 0 1 5 1 1
17 127 1 5 0 127
17 -128 1 5 1 0
-17 0 1 5 0 -1
-17 0 1 5 1 0
-17 127 1 5 0 126
-17 -128 1 5 1 0
5 0 3 5 0 0
5 0 3 5 1 0
5 127 3 5 0 127
5 -128 3 5 1 0
-5 0 3 5 0 0
-5 0 3 5 1 0
-5 127 3 5 0 127
-5 -128 3 5 1 0
0 0 2047 5 0 0
0 0 2047 5 1 0
0 127 2047 5 0 127
0 -128 2047 5 1 0
31 0 1 6 0 0
31 0 1 6 1 0
31 127 1 6 0 127
31 -128 1 6 1 0
-31 0 1 6 0 0
-31 0 1 6 1 0
-31 127 1 6 0 127
-31 -128 1 6 1 0
32 0 1 6 0 1
32 0 1 6 1 1
32 127 1 6 0 127
32 -128 1 6 1 0
-32 0 1 6 0 0
-32 0 1 6 1 0
-32 127 1 6 0 127
-32 -128 1 6 1 0
33 0 1 6 0 1
33 0 1 6 1 1
33 127 1 6 0 127
33 -128 1 6 1 0
-33 0 1 6 0 -1
-33 0 1 6 1 0
-33 127 1 6 0 126
-33 -128 1 6 1 0
10 0 3 6 0 0
10 0 3 6 1 0
10 127 3 6 0 127
10 -128 3 6 1 0
-10 0 3 6 0 0
-10 0 3 6 1 0
-10 127 3 6 0 127
-10 -128 3 6 1 0
11 0 3 6 0 1
11 0 3 6 1 1
11 127 3 6 0 127
11 -128 3 6 1 0
-11 0 3 6 0 -1
-11 0 3 6 1 0
-11 127 3 6 0 126
-11 -128 3 6 1 0
0 0 2047 6 0 0
0 0 2047 6 1 0
0 127 2047 6 0 127
0 -128 2047 6 1 0
63 0 1 7 0 0
63 0 1 7 1 0
63 127 1 7 0 127
63 -128 1 7 1 0
-63 0 1 7 0 0
-63 0 1 7 1 0
-63 127 1 7 0 127
-63 -128 1 7 1 0
64 0 1 7 0 1
64 0 1 7 1 1
64 127 1 7 0 127
64 -128 1 7 1 0
-64 0 1 7 0 0
-64 0 1 7 1 0
-64 127 1 7 0 127
-64 -128 1 7 1 0
65 0 1 7 0 1
65 0 1 7 1 1
65 127 1 7 0 127
65 -128 1 7 1 0
-65 0 1 7 0 -1
-65 0 1 7 1 0
-65 127 1 7 0 126
-65 -128 1 7 1 0
21 0 3 7 0 0
21 0 3 7 1 0
21 127 3 7 0 127
21 -128 3 7 1 0
-21 0 3 7 0 0
-21 0 3 7 1 0
-21 127 3 7 0 127
-21 -128 3 7 1 0
0 0 2047 7 0 0
0 0 2047 7 1 0
0 127 2047 7 0 127
0 -128 2047 7 1 0
127 0 1 8 0 0
127 0 1 8 1 0
127 127 1 8 0 127
127 -128 1 8 1 0
-127 0 1 8 0 0
-127 0 1 8 1 0
-127 127 1 8 0 127
-127 -128 1 8 1 0
128 0 1 8 0 1
128 0 1 8 1 1
128 127 1 8 0 127
128 -128 1 8 1 0
-128 0 1 8 0 0
-128 0 1 8 1 0
-128 127 1 8 0 127
-128 -128 1 8 1 0
129 0 1 8 0 1
129 0 1 8 1 1
129 127 1 8 0 127
129 -128 1 8 1 0
-129 0 1 8 0 -1
-129 0 1 8 1 0
-129 127 1 8 0 126
-129 -128 1 8 1 0
42 0 3 8 0 0
42 0 3 8 1 0
42 127 3 8 0 127
42 -128 3 8 1 0
-42 0 3 8 0 0
-42 0 3 8 1 0
-42 127 3 8 0 127
-42 -128 3 8 1 0
43 0 3 8 0 1
43 0 3 8 1 1
43 127 3 8 0 127
43 -128 3 8 1 0
-43 0 3 8 0 -1
-43 0 3 8 1 0
-43 127 3 8 0 126
-43 -128 3 8 1 0
0 0 2047 8 0 0
0 0 2047 8 1 0
0 127 2047 8 0 127
0 -128 2047 8 1 0
255 0 1 9 0 0
255 0 1 9 1 0
255 127 1 9 0 127
255 -128 1 9 1 0
-255 0 1 9 0 0
-255 0 1 9 1 0
-255 127 1 9 0 127
-255 -128 1 9 1 0
256 0 1 9 0 1
256 0 1 9 1 1
256 127 1 9 0 127
256 -128 1 9 1 0
-256 0 1 9 0 0
-256 0 1 9 1 0
-256 127 1 9 0 127
-256 -128 1 9 1 0
257 0 1 9 0 1
257 0 1 9 1 1
257 127 1 9 0 127
257 -128 1 9 1 0
-257 0 1 9 0 -1
-257 0 1 9 1 0
-257 127 1 9 0 126
-257 -128 1 9 1 0
85 0 3 9 0 0
85 0 3 9 1 0
85 127 3 9 0 127
85 -128 3 9 1 0
-85 0 3 9 0 0
-85 0 3 9 1 0
-85 127 3 9 0 127
-85 -128 3 9 1 0
0 0 2047 9 0 0
0 0 2047 9 1 0
0 127 2047 9 0 127
0 -128 2047 9 1 0
511 0 1 10 0 0
511 0 1 10 1 0
511 127 1 10 0 127
511 -128 1 10 1 0
-511 0 1 10 0 0
-511 0 1 10 1 0
-511 127 1 10 0 127
-511 -128 1 10 1 0
512 0 1 10 0 1
512 0 1 10 1 1
512 127 1 10 0 127
512 -128 1 10 1 0
-512 0 1 10 0 0
-512 0 1 10 1 0
-512 127 1 10 0 127
-512 -128 1 10 1 0
513 0 1 10 0 1
513 0 1 10 1 1
513 127 1 10 0 127
513 -128 1 10 1 0
-513 0 1 10 0 -1
-513 0 1 10 1 0
-513 127 1 10 0 126
-513 -128 1 10 1 0
170 0 3 10 0 0
170 0 3 10 1 0
170 127 3 10 0 127
170 -128 3 10 1 0
-170 0 3 10 0 0
-170 0 3 10 1 0
-170 127 3 10 0 127
-170 -128 3 10 1 0
171 0 3 10 0 1
171 0 3 10 1 1
171 127 3 10 0 127
171 -128 3 10 1 0
-171 0 3 10 0 -1
-171 0 3 10 1 0
-171 127 3 10 0 126
-171 -128 3 10 1 0
0 0 2047 10 0 0
0 0 2047 10 1 0
0 127 2047 10 0 127
0 -128 2047 10 1 0
1023 0 1 11 0 0
1023 0 1 11 1 0
1023 127 1 11 0 127
1023 -128 1 11 1 0
-1023 0 1 11 0 0
-1023 0 1 11 1 0
-1023 127 1 11 0 127
-1023 -128 1 11 1 0
1024 0 1 11 0 1
1024 0 1 11 1 1
1024 127 1 11 0 127
1024 -128 1 11 1 0
-1024 0 1 11 0 0
-1024 0 1 11 1 0
-1024 127 1 11 0 127
-1024 -128 1 11 1 0
1025 0 1 11 0 1
1025 0 1 11 1 1
1025 127 1 11 0 127
1025 -128 1 11 1 0
-1025 0 1 11 0 -1
-1025 0 1 11 1 0
-1025 127 1 11 0 126
-1025 -128 1 11 1 0
341 0 3 11 0 0
341 0 3 11 1 0
341 127 3 11 0 127
341 -128 3 11 1 0
-341 0 3 11 0 0
-341 0 3 11 1 0
-341 127 3 11 0 127
-341 -128 3 11 1 0
0 0 2047 11 0 0
0 0 2047 11 1 0
0 127 2047 11 0 127
0 -128 2047 11 1 0
2047 0 1 12 0 0
2047 0 1 12 1 0
2047 127 1 12 0 127
2047 -128 1 12 1 0
-2047 0 1 12 0 0
-2047 0 1 12 1 0
-2047 127 1 12 0 127
-2047 -128 1 12 1 0
2048 0 1 12 0 1
2048 0 1 12 1 1
2048 127 1 12 0 127
2048 -128 1 12 1 0
-2048 0 1 12 0 0
-2048 0 1 12 1 0
-2048 127 1 12 0 127
-2048 -128 1 12 1 0
2049 0 1 12 0 1
2049 0 1 12 1 1
2049 127 1 12 0 127
2049 -128 1 12 1 0
-2049 0 1 12 0 -1
-2049 0 1 12 1 0
-2049 127 1 12 0 126
-2049 -128 1 12 1 0
682 0 3 12 0 0
682 0 3 12 1 0
682 127 3 12 0 127
682 -128 3 12 1 0
-682 0 3 12 0 0
-682 0 3 12 1 0
-682 127 3 12 0 127
-682 -128 3 12 1 0
683 0 3 12 0 1
683 0 3 12 1 1
683 127 3 12 0 127
683 -128 3 12 1 0
-683 0 3 12 0 -1
-683 0 3 12 1 0
-683 127 3 12 0 126
-683 -128 3 12 1 0
1 0 2047 12 0 0
1 0 2047 12 1 0
1 127 2047 12 0 127
1 -128 2047 12 1 0
-1 0 2047 12 0 0
-1 0 2047 12 1 0
-1 127 2047 12 0 127
-1 -128 2047 12 1 0
4095 0 1 13 0 0
4095 0 1 13 1 0
4095 127 1 13 0 127
4095 -128 1 13 1 0
-4095 0 1 13 0 0
-4095 0 1 13 1 0
-4095 127 1 13 0 127
-4095 -128 1 13 1 0
4096 0 1 13 0 1
4096 0 1 13 1 1
4096 127 1 13 0 127
4096 -128 1 13 1 0
-4096 0 1 13 0 0
-4096 0 1 13 1 0
-4096 127 1 13 0 127
-4096 -128 1 13 1 0
4097 0 1 13 0 1
4097 0 1 13 1 1
4097 127 1 13 0 127
4097 -128 1 13 1 0
-4097 0 1 13 0 -1
-4097 0 1 13 1 0
-4097 127 1 13 0 126
-4097 -128 1 13 1 0
1365 0 3 13 0 0
1365 0 3 13 1 0
1365 127 3 13 0 127
1365 -128 3 13 1 0
-1365 0 3 13 0 0
-1365 0 3 13 1 0
-1365 127 3 13 0 127
-1365 -128 3 13 1 0
2 0 2047 13 0 0
2 0 2047 13 1 0
2 127 2047 13 0 127
2 -128 2047 13 1 0
-2 0 2047 13 0 0
-2 0 2047 13 1 0
-2 127 2047 13 0 127
-2 -128 2047 13 1 0
8191 0 1 14 0 0
8191 0 1 14 1 0
8191 127 1 14 0 127
8191 -128 1 14 1 0
-8191 0 1 14 0 0
-8191 0 1 14 1 0
-8191 127 1 14 0 127
-8191 -128 1 14 1 0
8192 0 1 14 0 1
8192 0 1 14 1 1
8192 127 1 14 0 127
8192 -128 1 14 1 0
-8192 0 1 14 0 0
-8192 0 1 14 1 0
-8192 127 1 14 0 127
-8192 -128 1 14 1 0
8193 0 1 14 0 1
8193 0 1 14 1 1
8193 127 1 14 0 127
8193 -128 1 14 1 0
-8193 0 1 14 0 -1
-8193 0 1 14 1 0
-8193 127 1 14 0 126
-8193 -128 1 14 1 0
2730 0 3 14 0 0
2730 0 3 14 1 0
2730 127 3 14 0 127
2730 -128 3 14 1 0
-2730 0 3 14 0 0
-2730 0 3 14 1 0
-2730 127 3 14 0 127
-2730 -128 3 14 1 0
2731 0 3 14 0 1
2731 0 3 14 1 1
2731 127 3 14 0 127
2731 -128 3 14 1 0
-2731 0 3 14 0 -1
-2731 0 3 14 1 0
-2731 127 3 14 0 126
-2731 -128 3 14 1 0
4 0 2047 14 0 0
4 0 2047 14 1 0
4 127 2047 14 0 127
4 -128 2047 14 1 0
-4 0 2047 14 0 0
-4 0 2047 14 1 0
-4 127 2047 14 0 127
-4 -128 2047 14 1 0
16383 0 1 15 0 0
16383 0 1 15 1 0
16383 127 1 15 0 127
16383 -128 1 15 1 0
-16383 0 1 15 0 0
-16383 0 1 15 1 0
-16383 127 1 15 0 127
-16383 -128 1 15 1 0
16384 0 1 15 0 1
16384 0 1 15 1 1
16384 127 1 15 0 127
16384 -128 1 15 1 0
-16384 0 1 15 0 0
-16384 0 1 15 1 0
-16384 127 1 15 0 127
-16384 -128 1 15 1 0
16385 0 1 15 0 1
16385 0 1 15 1 1
16385 127 1 15 0 127
16385 -128 1 15 1 0
-16385 0 1 15 0 -1
-16385 0 1 15 1 0
-16385 127 1 15 0 126
-16385 -128 1 15 1 0
5461 0 3 15 0 0
5461 0 3 15 1 0
5461 127 3 15 0 127
5461 -128 3 15 1 0
-5461 0 3 15 0 0
-5461 0 3 15 1 0
-5461 127 3 15 0 127
-5461 -128 3 15 1 0
8 0 2047 15 0 0
8 0 2047 15 1 0
8 127 2047 15 0 127
8 -128 2047 15 1 0
-8 0 2047 15 0 0
-8 0 2047 15 1 0
-8 127 2047 15 0 127
-8 -128 2047 15 1 0
32767 0 1 16 0 0
32767 0 1 16 1 0
32767 127 1 16 0 127
32767 -128 1 16 1 0
-32767 0 1 16 0 0
-32767 0 1 16 1 0
-32767 127 1 16 0 127
-32767 -128 1 16 1 0
32768 0 1 16 0 1
32768 0 1 16 1 1
32768 127 1 16 0 127
32768 -128 1 16 1 0
-32768 0 1 16 0 0
-32768 0 1 16 1 0
-32768 127 1 16 0 127
-32768 -128 1 16 1 0
32769 0 1 16 0 1
32769 0 1 16 1 1
32769 127 1 16 0 127
32769 -128 1 16 1 0
-32769 0 1 16 0 -1
-32769 0 1 16 1 0
-32769 127 1 16 0 126
-32769 -128 1 16 1 0
10922 0 3 16 0 0
10922 0 3 16 1 0
10922 127 3 16 0 127
10922 -128 3 16 1 0
-10922 0 3 16 0 0
-10922 0 3 16 1 0
-10922 127 3 16 0 127
-10922 -128 3 16 1 0
10923 0 3 16 0 1
10923 0 3 16 1 1
10923 127 3 16 0 127
10923 -128 3 16 1 0
-10923 0 3 16 0 -1
-10923 0 3 16 1 0
-10923 127 3 16 0 126
-10923 -128 3 16 1 0
16 0 2047 16 0 0
16 0 2047 16 1 0
16 127 2047 16 0 127
16 -128 2047 16 1 0
-16 0 2047 16 0 0
-16 0 2047 16 1 0
-16 127 2047 16 0 127
-16 -128 2047 16 1 0
65535 0 1 17 0 0
65535 0 1 17 1 0
65535 127 1 17 0 127
65535 -128 1 17 1 0
-65535 0 1 17 0 0
-65535 0 1 17 1 0
-65535 127 1 17 0 127
-65535 -128 1 17 1 0
65536 0 1 17 0 1
65536 0 1 17 1 1
65536 127 1 17 0 127
65536 -128 1 17 1 0
-65536 0 1 17 0 0
-65536 0 1 17 1 0
-65536 127 1 17 0 127
-65536 -128 1 17 1 0
65537 0 1 17 0 1
65537 0 1 17 1 1
65537 127 1 17 0 127
65537 -128 1 17 1 0
-65537 0 1 17 0 -1
-65537 0 1 17 1 0
-65537 127 1 17 0 126
-65537 -128 1 17 1 0
21845 0 3 17 0 0
21845 0 3 17 1 0
21845 127 3 17 0 127
21845 -128 3 17 1 0
-21845 0 3 17 0 0
-21845 0 3 17 1 0
-21845 127 3 17 0 127
-21845 -128 3 17 1 0
32 0 2047 17 0 0
32 0 2047 17 1 0
32 127 2047 17 0 127
32 -128 2047 17 1 0
-32 0 2047 17 0 0
-32 0 2047 17 1 0
-32 127 2047 17 0 127
-32 -128 2047 17 1 0
131071 0 1 18 0 0
131071 0 1 18 1 0
131071 127 1 18 0 127
131071 -128 1 18 1 0
-131071 0 1 18 0 0
-131071 0 1 18 1 0
-131071 127 1 18 0 127
-131071 -128 1 18 1 0
131072 0 1 18 0 1
131072 0 1 18 1 1
131072 127 1 18 0 127
131072 -128 1 18 1 0
-131072 0 1 18 0 0
-131072 0 1 18 1 0
-131072 127 1 18 0 127
-131072 -128 1 18 1 0
131073 0 1 18 0 1
131073 0 1 18 1 1
131073 127 1 18 0 127
131073 -128 1 18 1 0
-131073 0 1 18 0 -1
-131073 0 1 18 1 0
-131073 127 1 18 0 126
-131073 -128 1 18 1 0
43690 0 3 18 0 0
43690 0 3 18 1 0
43690 127 3 18 0 127
43690 -128 3 18 1 0
-43690 0 3 18 0 0
-43690 0 3 18 1 0
-43690 127 3 18 0 127
-43690 -128 3 18 1 0
43691 0 3 18 0 1
43691 0 3 18 1 1
43691 127 3 18 0 127
43691 -128 3 18 1 0
-43691 0 3 18 0 -1
-43691 0 3 18 1 0
-43691 127 3 18 0 126
-43691 -128 3 18 1 0
64 0 2047 18 0 0
64 0 2047 18 1 0
64 127 2047 18 0 127
64 -128 2047 18 1 0
-64 0 2047 18 0 0
-64 0 2047 18 1 0
-64 127 2047 18 0 127
-64 -128 2047 18 1 0
262143 0 1 19 0 0
262143 0 1 19 1 0
262143 127 1 19 0 127
262143 -128 1 19 1 0
-262143 0 1 19 0 0
-262143 0 1 19 1 0
-262143 127 1 19 0 127
-262143 -128 1 19 1 0
262144 0 1 19 0 1
262144 0 1 19 1 1
262144 127 1 19 0 127
262144 -128 1 19 1 0
-262144 0 1 19 0 0
-262144 0 1 19 1 0
-262144 127 1 19 0 127
-262144 -128 1 19 1 0
262145 0 1 19 0 1
262145 0 1 19 1 1
262145 127 1 19 0 127
262145 -128 1 19 1 0
-262145 0 1 19 0 -1
-262145 0 1 19 1 0
-262145 127 1 19 0 126
-262145 -128 1 19 1 0
87381 0 3 19 0 0
87381 0 3 19 1 0
87381 127 3 19 0 127
87381 -128 3 19 1 0
-87381 0 3 19 0 0
-87381 0 3 19 1 0
-87381 127 3 19 0 127
-87381 -128 3 19 1 0
128 0 2047 19 0 0
128 0 2047 19 1 0
128 127 2047 19 0 127
128 -128 2047 19 1 0
-128 0 2047 19 0 0
-128 0 2047 19 1 0
-128 127 2047 19 0 127
-128 -128 2047 19 1 0
524287 0 1 20 0 0
524287 0 1 20 1 0
524287 127 1 20 0 127
524287 -128 1 20 1 0
-524287 0 1 20 0 0
-524287 0 1 20 1 0
-524287 127 1 20 0 127
-524287 -128 1 20 1 0
524288 0 1 20 0 1
524288 0 1 20 1 1
524288 127 1 20 0 127
524288 -128 1 20 1 0
-524288 0 1 20 0 0
-524288 0 1 20 1 0
-524288 127 1 20 0 127
-524288 -128 1 20 1 0
524289 0 1 20 0 1
524289 0 1 20 1 1
524289 127 1 20 0 127
524289 -128 1 20 1 0
-524289 0 1 20 0 -1
-524289 0 1 20 1 0
-524289 127 1 20 0 126
-524289 -128 1 20 1 0
174762 0 3 20 0 0
174762 0 3 20 1 0
174762 127 3 20 0 127
174762 -128 3 20 1 0
-174762 0 3 20 0 0
-174762 0 3 20 1 0
-174762 127 3 20 0 127
-174762 -128 3 20 1 0
174763 0 3 20 0 1
174763 0 3 20 1 1
174763 127 3 20 0 127
174763 -128 3 20 1 0
-174763 0 3 20 0 -1
-174763 0 3 20 1 0
-174763 127 3 20 0 126
-174763 -128 3 20 1 0
256 0 2047 20 0 0
256 0 2047 20 1 0
256 127 2047 20 0 127
256 -128 2047 20 1 0
-256 0 2047 20 0 0
-256 0 2047 20 1 0
-256 127 2047 20 0 127
-256 -128 2047 20 1 0
1048575 0 1 21 0 0
1048575 0 1 21 1 0
1048575 127 1 21 0 127
1048575 -128 1 21 1 0
-1048575 0 1 21 0 0
-1048575 0 1 21 1 0
-1048575 127 1 21 0 127
-1048575 -128 1 21 1 0
1048576 0 1 21 0 1
1048576 0 1 21 1 1
1048576 127 1 21 0 127
1048576 -128 1 21 1 0
-1048576 0 1 21 0 0
-1048576 0 1 21 1 0
-1048576 127 1 21 0 127
-1048576 -128 1 21 1 0
1048577 0 1 21 0 1
1048577 0 1 21 1 1
1048577 127 1 21 0 127
1048577 -128 1 21 1 0
-1048577 0 1 21 0 -1
-1048577 0 1 21 1 0
-1048577 127 1 21 0 126
-1048577 -128 1 21 1 0
349525 0 3 21 0 0
349525 0 3 21 1 0
349525 127 3 21 0 127
349525 -128 3 21 1 0
-349525 0 3 21 0 0
-349525 0 3 21 1 0
-349525 127 3 21 0 127
-349525 -128 3 21 1 0
512 0 2047 21 0 0
512 0 2047 21 1 0
512 127 2047 21 0 127
512 -128 2047 21 1 0
-512 0 2047 21 0 0
-512 0 2047 21 1 0
-512 127 2047 21 0 127
-512 -128 2047 21 1 0
2097151 0 1 22 0 0
2097151 0 1 22 1 0
2097151 127 1 22 0 127
2097151 -128 1 22 1 0
-2097151 0 1 22 0 0
-2097151 0 1 22 1 0
-2097151 127 1 22 0 127
-2097151 -128 1 22 1 0
2097152 0 1 22 0 1
2097152 0 1 22 1 1
2097152 127 1 22 0 127
2097152 -128 1 22 1 0
-2097152 0 1 22 0 0
-2097152 0 1 22 1 0
-2097152 127 1 22 0 127
-2097152 -128 1 22 1 0
2097153 0 1 22 0 1
2097153 0 1 22 1 1
2097153 127 1 22 0 127
2097153 -128 1 22 1 0
-2097153 0 1 22 0 -1
-2097153 0 1 22 1 0
-2097153 127 1 22 0 126
-2097153 -128 1 22 1 0
699050 0 3 22 0 0
699050 0 3 22 1 0
699050 127 3 22 0 127
699050 -128 3 22 1 0
-699050 0 3 22 0 0
-699050 0 3 22 1 0
-699050 127 3 22 0 127
-699050 -128 3 22 1 0
699051 0 3 22 0 1
699051 0 3 22 1 1
699051 127 3 22 0 127
699051 -128 3 22 1 0
-699051 0 3 22 0 -1
-699051 0 3 22 1 0
-699051 127 3 22 0 126
-699051 -128 3 22 1 0
1024 0 2047 22 0 0
1024 0 2047 22 1 0
1024 127 2047 22 0 127
1024 -128 2047 22 1 0
-1024 0 2047 22 0 0
-1024 0 2047 22 1 0
-1024 127 2047 22 0 127
-1024 -128 2047 22 1 0
4194303 0 1 23 0 0
4194303 0 1 23 1 0
4194303 127 1 23 0 127
4194303 -128 1 23 1 0
-4194303 0 1 23 0 0
-4194303 0 1 23 1 0
-4194303 127 1 23 0 127
-4194303 -128 1 23 1 0
4194304 0 1 23 0 1
4194304 0 1 23 1 1
4194304 127 1 23 0 127
4194304 -128 1 23 1 0
-4194304 0 1 23 0 0
-4194304 0 1 23 1 0
-4194304 127 1 23 0 127
-4194304 -128 1 23 1 0
4194305 0 1 23 0 1
4194305 0 1 23 1 1
4194305 127 1 23 0 127
4194305 -128 1 23 1 0
-4194305 0 1 23 0 -1
-4194305 0 1 23 1 0
-4194305 127 1 23 0 126
-4194305 -128 1 23 1 0
1398101 0 3 23 0 0
1398101 0 3 23 1 0
1398101 127 3 23 0 127
1398101 -128 3 23 1 0
-1398101 0 3 23 0 0
-1398101 0 3 23 1 0
-1398101 127 3 23 0 127
-1398101 -128 3 23 1 0
2049 0 2047 23 0 0
2049 0 2047 23 1 0
2049 127 2047 23 0 127
2049 -128 2047 23 1 0
-2049 0 2047 23 0 0
-2049 0 2047 23 1 0
-2049 127 2047 23 0 127
-2049 -128 2047 23 1 0
8388607 0 1 24 0 0
8388607 0 1 24 1 0
8388607 127 1 24 0 127
8388607 -128 1 24 1 0
-8388607 0 1 24 0 0
-8388607 0 1 24 1 0
-8388607 127 1 24 0 127
-8388607 -128 1 24 1 0
2796202 0 3 24 0 0
2796202 0 3 24 1 0
2796202 127 3 24 0 127
2796202 -128 3 24 1 0
-2796202 0 3 24 0 0
-2796202 0 3 24 1 0
-2796202 127 3 24 0 127
-2796202 -128 3 24 1 0
2796203 0 3 24 0 1
2796203 0 3 24 1 1
2796203 127 3 24 0 127
2796203 -128 3 24 1 0
-2796203 0 3 24 0 -1
-2796203 0 3 24 1 0
-2796203 127 3 24 0 126
-2796203 -128 3 24 1 0
4098 0 2047 24 0 0
4098 0 2047 24 1 0
4098 127 2047 24 0 127
4098 -128 2047 24 1 0
-4098 0 2047 24 0 0
-4098 0 2047 24 1 0
-4098 127 2047 24 0 127
-4098 -128 2047 24 1 0
8388607 0 1 25 0 0
8388607 0 1 25 1 0
8388607 127 1 25 0 127
8388607 -128 1 25 1 0
-8388607 0 1 25 0 0
-8388607 0 1 25 1 0
-8388607 127 1 25 0 127
-8388607 -128 1 25 1 0
5592405 0 3 25 0 0
5592405 0 3 25 1 0
5592405 127 3 25 0 127
5592405 -128 3 25 1 0
-5592405 0 3 25 0 0
-5592405 0 3 25 1 0
-5592405 127 3 25 0 127
-5592405 -128 3 25 1 0
8196 0 2047 25 0 0
8196 0 2047 25 1 0
8196 127 2047 25 0 127
8196 -128 2047 25 1 0
-8196 0 2047 25 0 0
-8196 0 2047 25 1 0
-8196 127 2047 25 0 127
-8196 -128 2047 25 1 0
8388607 0 1 26 0 0
8388607 0 1 26 1 0
8388607 127 1 26 0 127
8388607 -128 1 26 1 0
-8388607 0 1 26 0 0
-8388607 0 1 26 1 0
-8388607 127 1 26 0 127
-8388607 -128 1 26 1 0
8388607 0 3 26 0 0
8388607 0 3 26 1 0
8388607 127 3 26 0 127
8388607 -128 3 26 1 0
-8388607 0 3 26 0 0
-8388607 0 3 26 1 0
-8388607 127 3 26 0 127
-8388607 -128 3 26 1 0
16392 0 2047 26 0 0
16392 0 2047 26 1 0
16392 127 2047 26 0 127
16392 -128 2047 26 1 0
-16392 0 2047 26 0 0
-16392 0 2047 26 1 0
-16392 127 2047 26 0 127
-16392 -128 2047 26 1 0
8388607 0 1 27 0 0
8388607 0 1 27 1 0
8388607 127 1 27 0 127
8388607 -128 1 27 1 0
-8388607 0 1 27 0 0
-8388607 0 1 27 1 0
-8388607 127 1 27 0 127
-8388607 -128 1 27 1 0
8388607 0 3 27 0 0
8388607 0 3 27 1 0
8388607 127 3 27 0 127
8388607 -128 3 27 1 0
-8388607 0 3 27 0 0
-8388607 0 3 27 1 0
-8388607 127 3 27 0 127
-8388607 -128 3 27 1 0
32784 0 2047 27 0 0
32784 0 2047 27 1 0
32784 127 2047 27 0 127
32784 -128 2047 27 1 0
-32784 0 2047 27 0 0
-32784 0 2047 27 1 0
-32784 127 2047 27 0 127
-32784 -128 2047 27 1 0
8388607 0 1 28 0 0
8388607 0 1 28 1 0
8388607 127 1 28 0 127
8388607 -128 1 28 1 0
-8388607 0 1 28 0 0
-8388607 0 1 28 1 0
-8388607 127 1 28 0 127
-8388607 -128 1 28 1 0
8388607 0 3 28 0 0
8388607 0 3 28 1 0
8388607 127 3 28 0 127
8388607 -128 3 28 1 0
-8388607 0 3 28 0 0
-8388607 0 3 28 1 0
-8388607 127 3 28 0 127
-8388607 -128 3 28 1 0
65568 0 2047 28 0 0
65568 0 2047 28 1 0
65568 127 2047 28 0 127
65568 -128 2047 28 1 0
-65568 0 2047 28 0 0
-65568 0 2047 28 1 0
-65568 127 2047 28 0 127
-65568 -128 2047 28 1 0
8388607 0 1 29 0 0
8388607 0 1 29 1 0
8388607 127 1 29 0 127
8388607 -128 1 29 1 0
-8388607 0 1 29 0 0
-8388607 0 1 29 1 0
-8388607 127 1 29 0 127
-8388607 -128 1 29 1 0
8388607 0 3 29 0 0
8388607 0 3 29 1 0
8388607 127 3 29 0 127
8388607 -128 3 29 1 0
-8388607 0 3 29 0 0
-8388607 0 3 29 1 0
-8388607 127 3 29 0 127
-8388607 -128 3 29 1 0
131136 0 2047 29 0 0
131136 0 2047 29 1 0
131136 127 2047 29 0 127
131136 -128 2047 29 1 0
-131136 0 2047 29 0 0
-131136 0 2047 29 1 0
-131136 127 2047 29 0 127
-131136 -128 2047 29 1 0
8388607 0 1 30 0 0
8388607 0 1 30 1 0
8388607 127 1 30 0 127
8388607 -128 1 30 1 0
-8388607 0 1 30 0 0
-8388607 0 1 30 1 0
-8388607 127 1 30 0 127
-8388607 -128 1 30 1 0
8388607 0 3 30 0 0
8388607 0 3 30 1 0
8388607 127 3 30 0 127
8388607 -128 3 30 1 0
-8388607 0 3 30 0 0
-8388607 0 3 30 1 0
-8388607 127 3 30 0 127
-8388607 -128 3 30 1 0
262272 0 2047 30 0 0
262272 0 2047 30 1 0
262272 127 2047 30 0 127
262272 -128 2047 30 1 0
-262272 0 2047 30 0 0
-262272 0 2047 30 1 0
-262272 127 2047 30 0 127
-262272 -128 2047 30 1 0
8388607 0 3 31 0 0
8388607 0 3 31 1 0
8388607 127 3 31 0 127
8388607 -128 3 31 1 0
-8388607 0 3 31 0 0
-8388607 0 3 31 1 0
-8388607 127 3 31 0 127
-8388607 -128 3 31 1 0
524544 0 2047 31 0 0
524544 0 2047 31 1 0
524544 127 2047 31 0 127
524544 -128 2047 31 1 0
-524544 0 2047 31 0 0
-524544 0 2047 31 1 0
-524544 127 2047 31 0 127
-524544 -128 2047 31 1 0
357714 -215 1060 31 1 0
29700 110 894 8 1 127
-1272 0 601 19 0 -1
41 227 412 22 1 127
-5967 232 1813 16 0 67
-7917447 -161 1633 0 1 0
-799 77 257 12 0 27
-881 202 373 5 1 0
8029132 -145 1234 18 0 127
2776646 -48 1178 28 0 -36
4526531 68 991 18 0 127
-519 -223 1065 30 0 -127
-62 -103 158 5 1 0
860138 -15 881 26 1 0
508885 109 337 20 0 127
178825 -62 995 1 1 127
-16 124 698 21 1 124
-77 -107 896 2 0 -127
-65 -63 490 25 0 -63
-17558 -219 88 12 0 -127
117 -41 250 1 1 127
-4982826 10 286 14 0 -127
13145 190 738 3 1 127
-77 144 816 16 1 127
-168979 -48 237 10 0 -127
90 -136 1811 11 0 -56
335345 62 1462 24 1 91
-1947 212 323 21 0 127
1036267 -118 983 30 1 0
1270971 111 542 19 1 127
-355000 -255 787 21 0 -127
-221 202 1550 26 0 127
352796 -209 678 28 0 -127
-12100 201 1995 0 0 -127
159265 63 1912 3 1 127
-1365 -123 60 25 1 0
-32324 -38 58 0 0 -127
-1074 -53 1238 17 0 -63
115 150 333 1 1 127
-281482 6 546 22 0 -31
232 -237 173 2 0 127
8482 119 172 31 1 119
256794 -74 851 24 1 0
-58 -102 1111 21 1 0
-20486 90 146 2 1 0
-824 40 1478 25 0 40
-17709 233 981 3 1 0
-1468 53 1651 21 1 52
-296430 -155 1970 30 1 0
-16473 234 475 31 1 127
26 87 637 10 1 103
-95 -170 811 14 0 -127
-507824 -156 1613 18 1 0
-68675 177 342 23 0 127
-10934 185 786 22 0 127
-114 206 826 7 1 0
13588 -44 172 13 0 127
-27 213 1548 23 0 127
121 -105 1662 27 1 0
32563 254 827 14 0 127
8946 73 145 9 1 127
-3157293 132 1205 30 0 127
-108 -189 921 8 0 -127
-30765 203 1354 10 0 -127
254430 135 137 5 0 127
-92055 40 1711 30 1 40
-551263 -236 0 11 1 0
149632 84 268 31 1 84
20718 137 1571 3 0 127
-91 37 1368 3 0 -127
352040 -112 2014 5 0 127
21120 -220 1909 24 1 0
-77 226 620 1 0 -127
-3935870 75 431 22 0 -127
503986 -143 246 29 1 0
23 -126 1587 18 0 -126
-2042544 -217 1605 28 1 0
1683 109 308 2 0 127
11295 -229 884 14 0 127
5707981 56 464 9 1 127
5773258 -170 429 26 0 -127
84 -97 125 28 1 0
-461092 252 1329 16 0 -127
-23550 -132 1471 1 1 0
-9450 -246 944 23 0 -127
-3580556 -44 13 13 0 -127
22 121 100 14 0 121
1671 -141 1952 22 1 0
-1820 -43 1483 21 1 0
6074 78 753 5 0 127
1938187 -96 1542 9 0 127
539 -8 969 11 1 127
22254 -209 541 1 1 127
-91 -121 1721 19 1 0
1410 49 1452 5 0 127
250098 -197 1541 26 0 -127
148207 195 835 23 1 127
-333329 -67 444 17 0 -127
-3225292 200 1633 11 1 0
-157838 -3 1857 21 0 -127
27844 -168 1979 13 1 127
101 217 31 13 1 127
26 -97 1737 30 0 -97
-36989 159 1147 1 0 -127
-27454 -256 1050 25 1 0
-310312 2 1449 18 0 -127
-5527783 -220 288 16 1 0
3016221 -135 1020 10 0 127
83240 33 550 13 0 127
321730 29 1197 28 1 30
-3764380 -96 505 7 1 0
457059 -114 1224 22 1 19
-67088 232 2002 20 1 104
99 51 584 31 0 51
-1150450 -230 1455 30 1 0
-94 -173 1618 0 1 0
-69 -253 1107 18 0 -127
310 -61 431 27 1 0
17580 -84 1354 26 1 0
1616 -105 1294 8 0 127
1590 101 1592 27 1 101
-62581 -56 1799 13 0 -127
-454497 -17 346 11 1 0
-40 -18 1218 5 1 0
21159 213 220 27 1 127
9966 231 882 21 1 127
-106 -203 667 22 0 -127
-31834 -113 260 27 0 -113
4916210 -30 1858 12 1 127
-4954686 -169 1306 20 1 0
720 -227 181 12 1 0
-21 98 769 12 1 94
8156 137 1043 30 1 127
-1684 57 296 0 1 0
394681 -208 1688 31 1 0
-276565 -169 333 15 0 -127
1343 -38 1804 4 1 127
4847643 -216 738 15 1 127
-999 29 1442 20 1 28
18 -50 1215 28 1 0
368695 23 949 1 0 127
-5070049 -80 1698 15 0 -127
-31924 182 203 7 1 0
-17270 111 940 18 0 49
-1518 58 1340 14 1 0
77240 -81 562 0 1 127
-29454 -124 1620 9 0 -127
-5823164 -118 845 31 0 -120
-966 -17 1575 22 0 -17
-297767 -230 1468 31 1 0
-31112 -31 667 31 1 0
2145593 -176 1061 8 1 127
544 42 1573 3 0 127
33 -1 1405 28 0 -1
12343 -90 1248 1 1 127
-6436312 -102 1447 1 1 0
-116 -9 184 0 0 -127
-24046 -193 1412 27 0 -127
1629 189 581 22 1 127
645 162 1567 0 1 127
27872 -214 502 26 1 0
-2023 -115 606 5 1 0
-604 -4 90 10 0 -57
90 -150 1873 9 0 127
11829 129 111 2 1 127
55 43 617 29 0 43
3550377 -90 1657 21 1 127
299039 -241 1272 18 1 127
6 -217 1867 25 0 -127
202561 251 209 1 1 127
2 40 848 21 1 40
-5378 -138 1349 15 1 0
-795 82 37 3 0 -127
14836 42 1201 20 1 59
379596 -82 4 9 0 127
-260366 93 38 30 1 93
-2091965 -185 1736 17 0 -127
-2689091 -192 644 7 1 0
33048 62 1167 0 1 127
1073 69 1401 12 1 127
-2000 -97 1573 23 1 0
82 -23 64 23 0 -23
855 252 78 15 0 127
-8502 174 319 28 0 127
-313689 -64 673 28 0 -65
303546 22 1035 27 1 24
2609260 -164 1257 1 1 127
0 -49 1629 24 1 0
-443722 220 1452 8 1 0
-29583 151 1940 8 0 -127
49 113 18 4 0 127
113 -212 1288 1 1 127
-261577 25 1664 9 0 -127
117645 -195 667 8 0 127
-426323 -212 1586 11 1 0
-5610333 -174 714 16 0 -127
10215 3 1061 29 0 3
-203804 -217 724 2 1 0
-30 211 977 29 0 127
-15090 231 234 5 1 0
-88 -150 1751 22 1 0
16785 114 486 8 1 127
-35 -128 78 21 0 -127
83 -193 1274 24 0 -127
-2746049 110 317 26 0 97
220159 5 1268 29 1 6
-1797 208 1081 12 1 0
55 -158 505 1 1 127
-38 157 55 20 1 127
8255440 231 329 3 1 127
-29125 -158 328 21 1 0
113 -223 631 18 0 -127
64 89 642 9 0 127
-746 -8 1344 1 1 0
-431660 -25 984 18 1 0
-97 104 925 10 1 16
237578 -115 1583 0 0 127
-8199458 143 704 9 0 -127
37 -253 156 3 0 127
-3432797 -100 1555 1 1 0
173902 -3 564 23 0 9
5046173 -182 531 26 1 0
92 190 1006 30 1 127
1186 -11 1970 25 0 -11
3391 124 88 30 0 124
-27486 73 1600 6 0 -127
1166 -229 1724 25 1 0
107 217 661 10 1 127
337843 -94 1162 7 1 127
-14065 110 1936 3 0 -127
-9582 76 1212 24 0 75
23751 -221 1681 17 1 84
793 -119 541 7 1 127
-1793 184 1631 29 0 127
89 -115 693 9 0 5
-179 -226 555 31 1 0
1276393 87 485 26 1 96
757 83 592 24 1 83
1053 98 1598 30 1 98
327781 -156 630 9 0 127
-4804528 -47 455 17 0 -127
-345240 -220 42 7 1 0
143348 -146 1853 23 1 0
-44637 -94 319 10 0 -127
1301 -43 1794 25 1 0
-60 141 701 28 0 127
-342266 158 1370 14 1 0
117 -152 1100 31 1 0
32101 -71 941 23 0 -67
-13941 211 281 4 1 0
335507 -162 1087 30 0 -127
23 -112 1472 6 0 127
-58 -53 28 2 1 0
8064650 -147 1937 22 1 127
-126 -9 928 31 1 0
-3328 -247 2030 22 1 0
-89 56 1729 14 1 47
-219202 -19 1179 12 1 0
4312 137 529 7 1 127
28962 -22 1531 22 1 0
14314 154 1159 6 1 127
-16958 200 631 22 0 127
721 255 936 7 1 127
450506 216 903 25 1 127
-36373 66 6 5 1 0
18909 -24 1766 3 0 127
-328251 13 820 20 0 -127
-36 116 115 14 0 116
67 -252 531 7 0 26
110 -54 6 26 0 -54
-2444935 -17 929 26 1 0
-523513 190 860 24 0 127
648194 -227 1421 23 1 0
-242476 -162 1031 6 0 -127
-29606 -111 556 24 0 -112
2333272 -50 1725 7 0 127
-263094 202 1924 11 1 0
3013702 -125 1704 16 1 127
43 -17 1858 15 1 0
336135 -232 1830 0 1 127
-54561 183 987 16 1 0
-228606 -23 1805 18 1 0
-212215 -167 768 19 0 -127
-49 95 150 21 0 95
294228 -64 1685 31 0 -64
1154 -208 1388 12 1 127
1507 -101 2021 13 1 127
-4 243 1301 12 0 127
-97 -119 994 28 0 -119
89 37 1385 31 0 37
1004 109 1794 25 1 109
28648 -188 600 14 0 127
1180 219 860 23 0 127
79 -44 358 26 1 0
-1326478 -252 558 31 1 0
-385782 -176 2018 0 0 -127
230710 63 342 1 0 127
-7452817 120 628 29 1 111
100 29 899 24 1 29
3012280 -23 1080 5 0 127
536 240 259 30 1 127
17764 -232 477 27 0 -127
-1794 -135 1760 15 0 -127
1856 137 472 22 1 127
-7925 -195 1387 0 0 -127
-478249 8 1358 8 1 0
85 -187 1030 6 0 127
-4084862 240 141 14 1 0
-17 -75 942 25 0 -75
6341261 100 647 17 1 127
-1651122 -35 1907 20 0 -127
-32709 -171 1343 19 1 0
-85 -242 1197 7 0 -127
-6369 98 1839 5 1 0
5341054 -131 329 29 1 0
381 -10 1789 18 0 -7
-124 19 312 20 1 19
1256089 -207 1019 8 1 127
-6506616 141 1714 17 0 -127
8224 245 1838 7 1 127
-10547 -204 946 30 1 0
-6 -173 1262 6 0 -127
1537 -241 1483 26 0 -127
-116314 255 1153 17 1 0
462886 -197 672 22 0 -123
-810 -30 1232 9 0 -127
13405 -229 742 14 1 127
-55 -125 688 15 1 0
107 -52 255 26 0 -52
289204 -39 1576 31 0 -39
-1344 -245 334 0 0 -127
420234 26 1689 22 1 127
-22724 -95 993 13 0 -127
-94 200 1019 28 0 127
1313811 -243 605 22 1 0
6206 3 547 1 1 127
1203 91 1939 19 1 95
1846 47 1359 22 1 48
317238 49 963 12 1 127
124 -85 574 30 1 0
24041 52 1868 3 0 127
27370 -186 74 12 0 127
-32631 -35 757 11 1 0
593050 -247 67 1 0 127
-1818 146 2047 23 1 127
93 -138 101 11 0 -127
756412 105 854 24 0 127
-8589 -73 2032 9 1 0
-782093 -254 221 27 0 -127
-1350 173 1271 21 0 127
45 -115 1294 17 1 0
168999 20 319 29 0 20
4 158 1834 26 0 127
5675987 -127 460 7 0 127
92707 -154 1743 16 1 127
54 -180 33 2 0 127
-1042 161 1577 30 0 127
-14361 -169 1605 14 0 -127
1330 -228 193 25 0 -127
1583778 160 1657 3 1 127
-3509618 -126 849 10 0 -127
7368650 38 1097 16 0 127
-505428 -204 287 0 1 0
-895 -119 469 21 0 -119
-13716 82 256 5 1 0
31 205 1359 31 1 127
-5558042 -174 1292 28 1 0
482419 180 303 14 0 127
132940 -105 288 9 0 127
68 -138 278 17 1 0
29748 155 1307 29 1 127
-1741 137 1499 21 0 127
-1418 230 454 23 1 127
-204867 -232 457 2 1 0
59 -72 1396 17 1 0
354605 -255 967 30 1 0
-1691 235 675 24 1 127
7841528 -38 111 29 0 -36
6431715 66 1342 27 0 127
6024133 144 971 23 1 127
-1230 -40 1044 15 1 0
-24817 89 599 20 0 75
54 -79 469 28 1 0
-561 110 1020 5 1 0
358 143 1119 12 1 127
136995 -235 177 12 0 127
-2900626 213 331 16 1 0
356050 65 1578 3 0 127
43 -93 1090 28 1 0
5532031 237 1535 14 0 127
-82 -239 1355 6 0 -127
-107 -159 1278 5 1 0
-428 28 1210 10 0 -127
-804776 -116 532 14 1 0
112174 -108 1111 13 0 127
1285 -70 814 1 1 127
7708876 -127 1109 5 1 127
-987377 -252 587 13 0 -127
-257622 -108 1986 2 1 0
-620 211 1296 28 0 127
-8029 -154 1432 31 1 0
4289 -33 1170 25 0 -33
1028 -140 389 8 1 127
1413 11 799 11 0 127
24968 78 1540 3 1 127
280927 -128 622 2 1 127
6498583 169 860 29 0 127
-340315 -157 1647 7 1 0
-1784 -50 954 15 0 -102
4294361 160 285 13 0 127
1980 -163 784 6 0 127
-1835147 185 1617 16 1 0
-7419670 103 1414 13 0 -127
1560 -36 868 0 0 127
1669 227 374 17 1 127
165768 48 363 7 1 127
-21187 -21 557 26 0 -21
120 33 589 23 0 33
36 71 309 23 0 71
370 178 1551 25 0 127
1563 -178 1178 9 0 127
8028875 102 636 9 1 127
-5034 -137 646 8 1 0
5832321 -73 156 19 1 127
-5526986 119 403 6 1 0
-1698 -226 353 29 1 0
230043 129 665 15 0 127
-3024648 252 996 0 0 -127
-867 -98 726 4 0 -127
-20256 20 1916 16 1 0
-90 -112 1849 3 1 0
516 161 1599 1 1 127
-309 -165 589 15 0 -127
146126 -246 1025 26 0 -127
18119 -51 1221 6 1 127
-1717 12 1254 5 1 0
1637 -230 1582 28 0 -127
22789 223 797 10 0 127
-18747 138 1053 12 1 0
30910 157 543 31 1 127
-1921 -44 1388 16 0 -85
95 61 1321 12 1 92
-256867 -130 1023 22 1 0
-159874 106 1751 27 1 104
-18932 -167 1854 8 0 -127
69 235 972 25 0 127
-404146 47 698 19 1 0
-4213668 89 0 9 0 89
45 89 1852 12 0 109
27685 11 701 28 1 11
-76 -252 438 21 0 -127
-17690 52 378 6 1 0
-3 -143 673 28 0 -127
1763 8 687 28 0 8
4312186 -240 502 6 1 127
67 -43 1050 24 0 -43
247501 -65 1742 0 1 127
-546741 34 1420 20 1 0
6869 96 1117 10 0 127
1738 75 95 23 1 75
1218578 -3 86 6 1 127
-2274403 -54 1592 21 0 -127
123 167 1912 28 1 127
-27 -48 279 31 0 -48
79 29 851 5 1 127
116 94 11 12 1 94
417075 34 262 2 0 127
16897 166 1560 14 1 127
315709 -256 1781 18 1 127
1221 185 1617 19 1 127
4015611 55 1715 10 1 127
89 193 1805 19 0 127
666 -20 1543 1 1 127
-549 253 283 6 0 -127
-7315363 -22 733 0 1 0
-147820 40 1625 28 1 39
-7118249 -93 1961 10 0 -127
114 33 1250 19 1 33
8 83 1889 4 0 127
-3965 209 1267 13 1 0
89 -215 174 5 1 127
22 60 237 0 0 127
-6942283 -97 693 30 0 -101
-3716054 -236 552 6 0 -127
-69 -50 410 31 1 0
-70 228 1825 10 0 103
1003 176 532 5 0 127
-63256 -160 1548 23 1 0
4777842 58 991 5 0 127
5204029 117 1161 22 1 127
-124 -255 586 16 0 -127
-523 -138 2005 30 0 -127
1408 -114 167 11 1 1
-6540 -159 2027 9 1 0
-7928 -138 995 22 1 0
12 141 1461 2 1 127
1180 -222 1724 17 0 -127
-26651 18 325 21 1 14
8 -24 734 16 1 0
-4583359 -81 2037 12 0 -127
73728 -213 1056 0 0 127
-3064047 81 704 25 0 17
-1747218 -224 776 29 1 0
2843867 98 1495 7 0 127
238414 -66 1965 14 1 127
-7892387 -64 2024 26 1 0
-788 183 1561 28 0 127
-24489 -94 9 19 0 -94
-50 0 722 25 1 0
5743845 72 1738 31 1 77
0 66 1052 16 1 66
-475396 255 831 27 1 127
-448265 -234 1697 5 1 0
-113 248 1597 22 1 127
6539908 230 757 1 1 127
474 184 273 14 0 127
1664 -125 2036 20 1 0
1955 2 2012 21 0 4
56 14 1613 6 1 127
-904 -108 261 21 0 -108
-115 245 1928 4 0 -127
1773 -118 1057 5 1 127
-15653 223 1518 2 1 0
-77 -144 1255 19 1 0
-1990 230 1658 25 0 127
85 17 1991 27 1 17
-219310 183 842 27 0 127
-23370 -116 1904 20 1 0
26197 95 1007 10 1 127
736 -32 2036 9 0 127
6534492 69 713 5 1 127
182 108 477 7 1 127
10189 61 1365 0 0 127
-8317 -83 651 30 0 -83
4 -148 208 24 0 -127
448501 240 576 9 0 127
-51 -134 1655 6 1 0
-77 -34 1237 25 0 -34
6798389 17 1383 11 1 127
-9542 -91 350 13 1 0
-333877 83 1738 19 1 0
-57 101 718 31 0 101
-1515 -128 1802 27 0 -127
-3318 -133 1320 8 0 -127
528 252 1406 30 1 127
-30380 -72 1112 12 0 -127
24866 -78 449 3 1 127
4220733 173 1300 21 0 127
32031 -108 106 30 0 -108
-85 -237 566 7 0 -127
8104 -58 256 3 0 127
899 136 1507 26 0 127
-441168 -28 30 28 0 -28
-202446 -51 259 8 1 0
5879 207 1401 26 1 127
2126 55 1817 21 1 57
20131 31 58 13 1 127
20075 182 531 11 1 127
-649 -59 319 17 0 -61
-2182473 240 497 30 0 127
-139058 -137 222 2 0 -127
-58 -106 859 22 1 0
-79 129 2000 8 1 0
-1571512 -27 1818 18 0 -127
1379 -159 772 8 0 127
3358 76 692 28 1 76
-5031794 -164 1623 0 0 -127
765 189 1016 21 1 127
-4230973 80 268 30 1 79
-654 136 241 22 1 127
-1313 26 1876 0 0 -127
718 209 276 24 1 127
69694 -227 1656 1 1 127
-61 51 1349 19 0 51
408285 -249 1329 9 1 127
24 -74 641 5 1 127
6805564 -115 1720 21 0 127
3676831 -84 337 5 0 127
-25 233 784 1 1 0
1875 107 1034 28 0 107
25660 187 912 30 0 127
4882667 89 878 22 1 127
-598 31 817 7 1 0
-200596 53 1047 10 1 0
-89 -66 1598 26 0 -66
-1 -187 884 20 1 0
-5095836 -83 653 3 1 0
-4745 -194 2021 4 0 -127
-32 -81 2017 12 1 0
-5447787 -103 1526 0 1 0
-3122 55 49 26 1 55
40 30 1417 6 1 127
-3385958 104 157 0 1 0
93 -17 1763 29 1 0
-39 209 276 0 0 -127
-63 146 1571 11 0 98
-4781104 -226 167 25 1 0
-10334 133 107 20 1 127
-1644468 108 1007 2 1 0
-424268 -52 1385 29 0 -53
-1771670 -39 146 12 0 -127
9639 81 1248 9 0 127
5539359 26 226 24 0 101
8311115 -90 1556 14 1 127
-254307 197 1485 2 0 -127
1225 241 918 5 0 127
-695 54 115 20 0 54
-576 170 1050 0 1 0
-1684 -35 1821 17 1 0
-1 16 791 21 0 16
31729 124 1203 3 1 127
55 35 797 21 0 35
-416 -64 1550 7 1 0
789 144 110 2 1 127
2 -51 1231 5 0 26
5777776 105 735 9 0 127
5858 -78 1990 18 0 -34
-317229 -177 1956 12 1 0
38932 79 423 8 1 127
-15772 -192 1887 25 1 0
8070 239 577 18 0 127
-385174 218 727 4 0 -127
-39292 42 439 27 1 42
-7344077 -206 1655 26 1 0
-38 -90 443 7 0 -127
14199 241 1008 27 0 127
-2117167 93 742 1 1 0
-1206 66 1015 6 0 -127
510621 37 1372 5 0 127
78 9 1392 14 1 16
-24066 204 521 2 0 -127
65034 86 1041 28 0 86
9344 -8 1445 23 1 0
-102040 -239 1613 19 1 0
-7650073 -135 1287 1 1 0
-1289 -128 207 18 0 -127
-994 -172 913 27 1 0
-30051 -190 1887 17 1 0
-734 207 44 10 0 127
-1642 -162 1514 3 0 -127
2018 5 1278 23 1 5
-419530 -7 532 13 0 -127
-57 -148 170 5 1 0
419245 148 57 20 0 127
405 44 1646 3 1 127
-87905 146 1080 19 0 -35
745 17 1852 28 0 17
2048314 74 312 27 1 79
-73 80 431 12 0 72
-119 61 1894 7 0 -127
-28273 24 1234 16 0 -127
412832 232 1256 21 0 127
1490088 -147 1399 5 0 127
432775 12 1428 17 0 127
1673 221 1061 30 0 127
-40 -203 1028 23 1 0
-25294 137 1397 11 1 0
-431352 54 1307 17 1 0
50 -236 1838 11 1 0
1495924 14 2011 0 1 127
-50 99 955 7 0 -127
409313 131 150 20 0 127
107 0 869 11 1 45
76 -199 1082 6 0 127
-123 7 1733 18 0 6
30358 90 1087 21 0 106
-7 196 73 24 1 127
-25 -140 998 1 1 0
-74 248 2022 27 0 127
26123 -80 157 23 1 0
3165 -22 1601 0 0 127
-59 82 675 1 0 -127
-2931689 -98 321 8 0 -127
-2124556 161 1593 1 1 0
12357 -240 971 0 1 127
12104 -168 1519 23 0 -127
-130604 113 1033 9 0 -127
-2164242 -118 456 20 0 -127
-2835497 110 1046 29 1 104
-136477 148 1714 23 0 120
-13145 9 734 21 1 4
63 126 1098 22 0 126
-90326 -52 645 29 1 0
-193672 -255 1497 8 0 -127
333793 -160 213 24 1 0
-1700376 185 12 14 1 0
7885475 249 1741 25 1 127
30 -76 685 20 0 -76
6686612 -94 1597 14 0 127
-30438 212 1284 30 1 127
-1038593 63 117 31 0 63
-5635 126 63 18 1 125
-1994 -31 1584 8 1 0
-1693120 -128 1598 30 1 0
-241088 -225 1622 27 1 0
-14090 41 2042 16 1 0
-298426 217 827 11 1 0
-445099 163 829 18 1 0
30 20 667 9 0 59
-15679 -89 1421 13 0 -127
-75 -127 1033 18 1 0
-1548 29 1520 6 1 0
11054 10 441 3 0 127
22826 239 1300 14 0 127
360413 -171 1024 22 0 -83
-124 -127 1582 23 0 -127
11126 152 455 6 0 127
596 156 591 2 0 127
53 -44 1686 7 1 127
724 -164 422 8 1 127
-646 -36 1575 27 0 -36
-1955 31 1714 13 0 -127
3790235 84 1029 14 1 127
-1273610 -204 443 16 1 0
-109 -154 1342 21 0 -127
1107888 -156 985 19 0 127
72 235 611 20 0 127
-99 -115 162 3 1 0
-31188 178 1013 13 0 -127
-9873 46 417 28 1 46
1851 12 1961 12 1 127
-295 157 1436 27 1 127
-173743 -122 2007 7 0 -127
3196910 27 30 19 1 127
1191 -26 1185 20 0 -25
-28187 180 103 1 0 -127
80 51 1855 21 0 51
4428502 -148 1723 17 0 127
-26942 -193 1429 7 0 -127
-5091916 -221 869 26 1 0
-73 -71 498 9 0 -127
1909 10 1638 13 0 127
7987014 -180 935 8 1 127
-385125 -4 935 7 0 -127
505144 174 1049 12 0 127
4714070 -98 2020 8 0 127
17867 235 1868 26 1 127
-626259 -191 1224 15 1 0
-1320 188 1115 18 1 127
9170 -44 391 19 1 0
-1216 -8 1673 10 1 0
1379 219 1002 17 1 127
-385511 231 1802 6 0 -127
8 15 35 24 1 15
-1845 -90 247 26 1 0
23194 132 166 17 1 127
-7912716 -168 145 9 0 -127
673 179 572 18 1 127
-1437 19 602 12 0 -127
-1940 -228 1809 17 1 0
-7706390 134 1911 10 0 -127
-1973 153 1451 5 1 0
108 -19 1060 24 0 -19
419916 244 678 13 0 127
-5210473 -34 1637 20 1 0
-1562 70 1142 5 0 -127
107 -233 1958 22 1 0
-160775 -218 722 10 1 0
415 -204 223 14 0 -127
4011910 7 1862 18 1 127
2718240 127 535 4 1 127
-4575539 -157 628 10 1 0
-69385 1 1441 22 1 0
-8023755 -192 1722 7 1 0
-368907 -154 1866 9 1 0
1297 -222 1409 27 1 0
-14273 -171 1816 20 0 -127
-6909635 -31 1820 26 0 -127
-7245692 -55 1162 13 1 0
59 35 1573 8 0 127
413 -45 1835 18 0 -42
91 190 42 10 0 127
22156 -20 1100 25 1 0
-3181466 -163 1341 13 0 -127
263600 29 1349 12 0 127
-7163935 247 1011 13 1 0
-540 206 948 2 0 -127
1195 150 1731 1 0 127
1281642 59 182 13 1 127
277288 -141 1428 5 1 127
-3425 -211 414 22 1 0
493 40 405 0 0 127
6212989 -51 2028 13 1 127
5212320 228 659 9 0 127
6871999 -181 1690 20 0 127
46 210 790 31 1 127
-48 0 1195 18 1 0
-8323771 248 281 30 1 127
244675 235 286 19 0 127
447466 104 1812 9 1 127
-24332 7 856 8 1 0
-38 -252 1867 30 1 0
-2006 189 1441 19 1 127
-112 -209 1018 27 0 -127
64 225 859 7 1 127
-40 229 193 4 0 -127
-13690 192 649 13 0 -127
-1902 -194 1839 31 1 0
-1460 -193 196 3 0 -127
29643 -247 2024 16 0 127
-3360422 -175 1516 20 0 -127
-1295125 50 1015 10 0 -127
-23939 -153 1168 26 1 0
143029 -100 454 23 1 0
-33 -206 1673 1 1 0
2193315 -15 69 3 0 127
-9 79 458 5 1 0
28396 -197 436 27 0 -127
2769 -143 552 7 1 127
2264 118 221 4 1 127
14720 30 29 8 1 127
-3867 -47 310 27 1 0
-5940509 -91 720 14 0 -127
16898 -197 1463 13 1 127
-1617677 222 417 28 0 127
8273 93 100 27 0 93
18224 176 1531 15 0 127
16407 141 1155 12 0 127
64 -44 750 12 0 -32
16739 -192 424 2 1 127
-704 110 1890 26 1 110
5131 73 1751 10 1 127
1752 -114 1676 22 1 0
-113 -108 1463 20 0 -108
20 115 198 6 1 127
-655397 -240 1863 30 0 -127
-1426 -47 848 12 1 0
-31810 48 1146 0 1 0
-6396329 96 674 26 0 32
-219571 210 1948 20 0 -127
-29731 -172 1906 31 0 -127
-1571 -145 1551 6 1 0
1856 55 1582 0 0 127
-1106287 -86 726 29 0 -87
-123582 -245 185 30 1 0
37773 208 1384 6 0 127
-7026410 202 1987 30 1 127
-51639 -209 128 20 1 0
-30584 -233 817 21 0 -127
362 -70 1789 6 1 127
-69145 -192 1513 25 0 -127
502972 -150 1082 27 1 0
19545 108 1685 16 0 127
1700 119 879 5 1 127
64 172 833 27 0 127
143103 -138 69 13 1 127
-19 53 350 13 0 52
1511 77 1200 10 0 127
8190991 -249 538 31 0 -127
29 197 1096 12 0 127
7206 -117 757 20 1 0
13119 205 1973 26 0 127
6841785 -42 1081 26 1 68
-394935 94 2012 21 0 -127
32036 117 1797 4 0 127
1116633 46 1787 21 1 127
49 201 1689 2 1 127
3403120 -250 1451 1 1 127
5894201 -31 241 19 0 127
-1092019 -139 1658 7 0 -127
9009 91 209 28 0 91
-7779578 160 1025 30 1 127
-903659 44 664 15 0 -127
-15239 -7 1109 22 0 -11
2548250 -104 257 24 0 -65
-340 134 668 31 1 127
-5719321 -159 1260 13 0 -127
50 -167 1843 18 1 0
265794 26 911 23 0 55
18708 122 484 9 1 127
4518195 102 1092 9 0 127
-50 -161 1054 2 0 -127
3554433 142 1427 6 1 127
-25 164 84 26 1 127
-198813 -149 328 21 1 0
1895488 -37 2020 29 0 -30
1236707 224 1491 6 0 127
12763 214 618 17 0 127
103 -71 2022 19 0 -71
-1472 -10 662 29 0 -10
52 87 1751 22 0 87
82 241 364 29 1 127
46 234 485 19 0 127
4076340 -214 743 19 0 127
29824 -27 1552 21 0 -5
11628 201 836 29 1 127
2225725 184 1755 30 0 127
1885 -204 786 2 1 127
-47 -150 669 13 0 -127
91 -63 87 10 1 0
-1073 175 1373 14 1 85
-72 -144 815 6 0 -127
-5525064 -175 38 11 1 0
-217759 60 1202 14 1 0
-15630 251 680 21 0 127
-1010 147 1943 24 0 127
-2277924 -237 1153 6 0 -127
-453194 -103 865 19 0 -127
-1887 204 1550 27 1 127
199 -180 1447 31 1 0
-30468 -224 471 30 1 0
1618 -249 1032 15 0 -127
542 27 135 25 1 27
-53 -63 1293 1 0 -127
-83 -32 1451 6 1 0
-6609 -65 1795 28 1 0
-1281 -70 509 21 0 -70
4 187 1243 13 0 127
-4 -41 1268 16 0 -41
-53 255 1077 8 0 32
-26 -2 909 8 1 0
2023 251 420 23 1 127
-2429051 -255 1678 8 0 -127
248509 -53 836 22 0 -3
8377901 -205 1693 29 0 -127
2389385 -50 1291 10 0 127
31541 -182 1648 19 0 -83
-1911 230 472 13 1 120
7162 41 29 22 1 41
-121 -231 1918 3 0 -127
-100 6 1273 4 0 -127
-14 -221 1281 21 1 0
121 157 1186 1 0 127
13159 73 699 26 0 73
-413729 -227 1097 13 1 0
-1950 155 1055 15 0 92
-37 207 610 14 1 127
18523 -177 1951 14 1 127
-28370 118 1219 16 0 -127
10788 43 1122 24 1 44
-89 171 807 11 0 127
15926 197 1806 26 0 127
6528906 94 387 13 1 127
-18961 -234 129 4 0 -127
5795184 72 389 5 1 127
32177 222 244 19 1 127
29361 -126 927 3 1 127
-321692 -1 928 2 1 0
69 88 1705 22 0 88
4489099 211 527 26 0 127
-1737 126 1889 29 0 126
1248 -123 1218 2 0 127
1422125 11 974 5 1 127
121 72 738 19 0 72
-24 -30 1486 11 1 0
-2457 61 794 3 1 0
5161 140 1103 5 0 127
-61 -23 3 8 1 0
-734 242 153 31 1 127
-380934 110 490 13 0 -127
-779 30 1953 19 1 27
-7517 95 845 8 1 0
-181724 -29 1763 24 1 0
804 58 1893 8 1 127
417179 162 864 3 1 127
-6703716 237 192 26 0 127
-121 2 720 4 0 -127
10797 -234 1225 25 0 -127
329008 82 842 15 0 127
6489886 137 1286 28 0 127
-5116013 33 1853 7 0 -127
-222 93 1680 21 0 93
31816 -242 458 9 0 127
3474 -126 980 10 1 127
-3708 -16 186 12 1 0
-9947 148 1920 31 0 127
281652 53 930 7 1 127
46942 67 352 6 0 127
2006 -72 240 29 0 -72
7741454 -124 106 15 0 127
-1790 92 1431 30 1 92
11262 74 349 19 1 81
122 69 1435 27 0 69
-120 -99 1502 15 0 -105
-76 58 1745 24 1 58
29782 -196 965 17 1 23
160413 -199 336 4 0 127
-15129 -203 1237 16 0 -127
2425026 -37 847 8 1 127
-198453 -174 1081 24 1 0
5642 188 1355 12 0 127
-220421 66 300 8 0 -127
-4069336 239 1273 2 1 0
-215923 141 350 15 1 0
161907 -27 180 1 1 127
5080704 -109 897 14 1 127
-2513109 -107 206 15 0 -127
-8252685 -12 471 4 0 -127
-19 -99 889 21 1 0
5312955 -173 1512 5 1 127
-267217 77 213 4 0 -127
6256 -220 695 6 1 127
4527 -81 1859 27 0 -81
-1283 -131 1700 10 1 0
6837652 -74 0 6 0 -74
-201898 -45 1344 3 0 -127
185975 -125 1064 21 1 0
72 -252 1166 19 1 0
2266565 250 1257 3 0 127
-256430 -131 133 13 1 0
-1068 -28 780 18 1 0
27839 233 1713 13 0 127
-18 118 680 19 0 118
94 162 1389 13 0 127
-21307 -124 242 21 0 -126
-1502 -144 455 3 0 -127
1041 56 124 28 0 56
-1948 -18 675 0 1 0
5342 -71 1611 20 0 -63
-1071 -108 1940 9 0 -127
-7253233 48 889 7 1 0
26205 240 911 17 1 127
110132 198 897 26 0 127
297936 -51 499 23 0 -33
-93 -235 1667 22 0 -127
650 190 446 2 1 127
117781 23 1594 17 1 127
-3210674 -128 68 4 0 -127
34 116 1914 27 0 116
-396951 109 1571 29 1 108
112121 -144 711 18 0 127
5191232 7 570 5 1 127
112433 188 11 31 0 127
1146161 -49 54 19 0 69
235370 135 1498 24 0 127
-31717 -196 418 26 0 -127
180596 -32 1393 21 1 88
-13515 64 1390 5 1 0
3173 32 622 26 1 32
-1192 -21 1102 28 0 -21
-14624 26 193 0 0 -127
10936 -137 1848 3 1 127
1943 -35 933 21 0 -34
6 246 1917 19 1 127
-8461 -163 480 8 1 0
-21512 40 681 30 1 40
1014 24 1109 21 0 25
-4296 -156 1193 24 1 0
28171 -159 283 15 0 84
-127082 112 1088 2 0 -127
60 198 1170 19 1 127
-1927 47 669 1 1 0
-271945 191 1936 5 0 -127
391834 -26 1128 8 1 127
-343686 105 1696 19 1 0
421718 64 1266 5 0 127
-90 -4 1739 28 0 -4
7225906 -233 730 9 1 127
2716662 -86 1374 10 0 127
297894 -83 396 23 0 -69
-321092 -101 1360 2 0 -127
8115 24 712 13 1 127
-482562 19 1638 7 1 0
17292 39 1209 5 1 127
322 229 84 15 0 127
-117 87 1735 9 1 0
-76 -156 1262 29 1 0
1462 4 1481 16 1 37
129210 238 1789 15 0 127
77007 -119 399 11 0 127
4120 27 434 20 0 29
-28 -189 1302 2 1 0
7925311 181 492 10 1 127
-150 65 736 2 0 -127
-28 -159 203 31 0 -127
-7010 108 1747 10 0 -127
-2816118 208 1575 12 0 -127
5948160 248 614 26 0 127
-662 67 656 26 1 67
5786453 171 1189 13 1 127
350061 -27 1886 5 0 127
7584476 -220 1329 21 1 127
68388 -183 250 4 1 127
189 -7 358 6 0 127
27 191 1049 5 0 127
-62 -17 344 27 0 -17
3397877 -178 847 14 1 127
-5339933 -28 1896 10 1 0
4180524 -1 570 7 1 127
-400527 156 890 27 1 127
-4161603 139 160 0 0 -127
3888653 -225 538 5 0 127
-700 141 1522 13 0 11
-106823 -109 952 30 1 0
13503 -95 1130 19 1 0
-1499 -7 815 26 0 -7
66740 -45 690 2 1 127
-28213 41 768 31 0 41
-44 -42 1513 29 1 0
-1000 -71 1975 9 0 -127
-7046300 156 543 3 0 -127
4440364 -40 1955 0 1 127
-4224342 10 1897 3 1 0
-410444 240 562 8 1 0
161844 -194 342 12 0 127
83 22 849 7 1 127
689 233 1606 12 0 127
-375680 240 1985 1 1 0
-2034 -55 928 19 0 -59
120 146 1600 11 0 127
-89 -155 2027 6 0 -127
1166 72 1123 3 1 127
2562519 -156 1395 16 0 127
-24900 -222 1651 22 0 -127
211626 -66 1000 11 0 127
24709 214 563 13 1 127
-1035 -29 571 5 1 0
462212 97 36 9 0 127
-436 -212 76 16 0 -127
-7148959 192 1064 22 0 -127
42773 74 1644 21 1 108
8822 -59 1245 31 0 -59
-106 29 1460 10 1 0
17459 -5 100 9 1 127
1276 55 1080 1 1 127
59 95 1339 14 0 100
-30392 -86 1289 13 1 0
-706 144 1411 24 1 127
24336 158 1198 14 0 127
-21568 93 1881 9 1 0
-5594180 6 871 10 0 -127
9870 -240 1395 0 0 127
30275 -152 996 24 0 -127
-26095 -251 1414 17 1 0
-128 141 984 29 1 127
-16156 138 111 13 0 -81
-389026 -161 1273 4 1 0
1468 -139 461 13 0 -56
-466 -51 1508 5 0 -127
-7139 -59 1125 5 0 -127
7702628 -13 289 22 0 127
1873890 -80 862 1 1 127
3201181 -25 1646 8 1 127
-3013738 251 305 13 1 0
29085 171 1043 11 0 127
29593 -215 292 2 1 127
7817242 190 1993 7 0 127
61 142 1064 22 1 127
645 -103 496 22 0 -103
13245 152 426 20 0 127
69079 3 1464 10 0 127
-29 228 379 20 0 127
25293 -84 1753 13 1 127
1922 -123 1938 30 1 0
-7277421 -41 673 4 1 0
519542 150 1651 2 1 127
-740 12 667 10 1 0
51 -27 1655 20 0 -27
6527980 -145 1629 24 1 127
25155 70 1581 29 0 70
2027 239 1809 11 0 127
-1128 100 525 11 1 0
-218 161 1924 11 0 -44
557694 42 386 1 1 127
23152 -216 1028 30 0 -127
7471626 237 1378 30 1 127
858038 -217 294 5 0 127
-280 24 1295 11 1 0
-55 -166 93 23 0 -127
477 155 1944 3 0 127
-16603 57 596 24 1 56
